# dimensionless [l(l+1)/2pi] C_l's for scalar adiabatic (AD) mode
# for l=2 to 6500, i.e. number of multipoles equal to 6499
#
# -> if you prefer output in CAMB/HealPix/LensPix units/order, set 'format' to 'camb' in input file
# -> if you don't want to see such a header, set 'headers' to 'no' in input file
# -> for CMB lensing (phi), these are C_l^phi-phi for the lensing potential.
#    Remember the conversion factors:
#    C_l^dd (deflection) = l(l+1) C_l^phi-phi
#    C_l^gg (shear/convergence) = 1/4 (l(l+1))^2 C_l^phi-phi
#
# 1:l     2:TT                     3:EE                     4:TE                     5:BB                     6:phiphi                 7:TPhi                   8:Ephi               
    2       1.429578959676e-10       5.877674676382e-15       4.007225610860e-13       0.000000000000e+00       8.028130386754e-09       4.875954458186e-10      -2.160105121333e-12 
    3       1.340754367146e-10       8.889667086916e-15       4.866610073472e-13       0.000000000000e+00       4.940984122268e-09       3.456489391513e-10      -1.800453304711e-12 
    4       1.257719995683e-10       9.165562441953e-15       4.852414466097e-13       0.000000000000e+00       3.443270313101e-09       2.619522228856e-10      -1.335710020680e-12 
    5       1.194389470015e-10       7.372518559630e-15       4.376413815822e-13       0.000000000000e+00       2.574615387890e-09       2.071068790949e-10      -8.956330688004e-13 
    6       1.149329068259e-10       4.888801189157e-15       3.706322242847e-13       0.000000000000e+00       2.013762608389e-09       1.686541852158e-10      -5.241065254763e-13 
    7       1.119022442595e-10       2.817429234612e-15       3.015976704871e-13       0.000000000000e+00       1.626164867988e-09       1.403796163587e-10      -2.388275367397e-13 
    8       1.099414659350e-10       1.579414720529e-15       2.403158207455e-13       0.000000000000e+00       1.344603597833e-09       1.188468675204e-10      -4.216396354780e-14 
    9       1.088441493497e-10       1.046334355036e-15       1.916727183110e-13       0.000000000000e+00       1.132309009131e-09       1.020527734036e-10       7.367915517524e-14 
   10       1.084164114777e-10       8.785368063634e-16       1.571986651126e-13       0.000000000000e+00       9.677643127963e-10       8.871266056459e-11       1.232158763634e-13 
   11       1.084535706222e-10       8.009392861331e-16       1.362655038608e-13       0.000000000000e+00       8.183176809687e-10       7.814132446877e-11       1.241731564236e-13 
   12       1.088440372622e-10       7.034119169709e-16       1.268293086993e-13       0.000000000000e+00       7.153595728049e-10       6.922736850816e-11       9.598069182325e-14 
   13       1.095497752149e-10       5.980902167031e-16       1.259721501817e-13       0.000000000000e+00       6.307874017058e-10       6.161009800349e-11       5.404958732397e-14 
   14       1.104969556078e-10       5.295921113739e-16       1.306478672294e-13       0.000000000000e+00       5.603777378418e-10       5.533704184378e-11       1.172023443054e-14 
   15       1.116092321388e-10       5.156179117437e-16       1.382505027334e-13       0.000000000000e+00       5.010863016421e-10       5.007956302366e-11      -2.249393085334e-14 
   16       1.128909097173e-10       5.401330045443e-16       1.468446329372e-13       0.000000000000e+00       4.506521847952e-10       4.545492291302e-11      -4.442482332254e-14 
   17       1.143123017080e-10       5.772545042573e-16       1.552281975254e-13       0.000000000000e+00       4.073660296659e-10       4.135490904972e-11      -5.331201810676e-14 
   18       1.158160420970e-10       6.136917351337e-16       1.627957572630e-13       0.000000000000e+00       3.697803806497e-10       3.776969166813e-11      -5.119048134753e-14 
   19       1.174245952012e-10       6.568788667739e-16       1.695631038249e-13       0.000000000000e+00       3.373027092550e-10       3.467373579992e-11      -4.132610790305e-14 
   20       1.191293395434e-10       7.209564037562e-16       1.757905857436e-13       0.000000000000e+00       3.086888084501e-10       3.194752429658e-11      -2.827147289900e-14 
   21       1.209118209088e-10       8.140511210080e-16       1.819059129093e-13       0.000000000000e+00       2.834922827091e-10       2.952122628910e-11      -1.532793851144e-14 
   22       1.227238457334e-10       9.407632892612e-16       1.884081243416e-13       0.000000000000e+00       2.611122840250e-10       2.731020246426e-11      -5.509376707979e-15 
   23       1.245857642188e-10       1.097286007679e-15       1.955223581274e-13       0.000000000000e+00       2.412428947059e-10       2.533063031377e-11       3.235581360272e-17 
   24       1.265165749963e-10       1.276628804879e-15       2.033145588713e-13       0.000000000000e+00       2.234267827133e-10       2.359905240745e-11       1.037771242812e-15 
   25       1.285079323380e-10       1.478034008835e-15       2.115655783461e-13       0.000000000000e+00       2.074554686191e-10       2.206404944384e-11      -1.691579200915e-15 
   26       1.305295968578e-10       1.702277243174e-15       2.198923922030e-13       0.000000000000e+00       1.930410108569e-10       2.064214543969e-11      -6.693910677890e-15 
   27       1.325829172753e-10       1.948845292126e-15       2.279012192450e-13       0.000000000000e+00       1.800120574681e-10       1.932828826540e-11      -1.236496683507e-14 
   28       1.346696191301e-10       2.216689416210e-15       2.351654284015e-13       0.000000000000e+00       1.681457065390e-10       1.813158468293e-11      -1.702198193045e-14 
   29       1.367980670399e-10       2.505544945305e-15       2.413988098047e-13       0.000000000000e+00       1.573816551665e-10       1.704867019645e-11      -2.002976447217e-14 
   30       1.389667584997e-10       2.815229712178e-15       2.463269829603e-13       0.000000000000e+00       1.476041889215e-10       1.606060216055e-11      -2.105681181978e-14 
   31       1.411641129311e-10       3.145949635396e-15       2.497011218783e-13       0.000000000000e+00       1.386138846622e-10       1.514055612120e-11      -1.992136738199e-14 
   32       1.433943128454e-10       3.500414323284e-15       2.515374237401e-13       0.000000000000e+00       1.303647770479e-10       1.428747186196e-11      -1.713435981088e-14 
   33       1.456585877159e-10       3.882583570234e-15       2.519729293722e-13       0.000000000000e+00       1.227992713544e-10       1.350344460254e-11      -1.358741735197e-14 
   34       1.479514976056e-10       4.296354903047e-15       2.511782939983e-13       0.000000000000e+00       1.158122992290e-10       1.278527746803e-11      -1.025864584664e-14 
   35       1.502758309307e-10       4.742710874460e-15       2.492524509720e-13       0.000000000000e+00       1.093682712377e-10       1.212773443968e-11      -7.608404973226e-15 
   36       1.526312375575e-10       5.221563916992e-15       2.462955776491e-13       0.000000000000e+00       1.034154892936e-10       1.152038900126e-11      -5.983808935803e-15 
   37       1.550125775724e-10       5.732705548598e-15       2.423947647172e-13       0.000000000000e+00       9.787651688110e-11       1.095030770075e-11      -5.658746535636e-15 
   38       1.574207290882e-10       6.276575440445e-15       2.374731970090e-13       0.000000000000e+00       9.273714559101e-11       1.041620218969e-11      -6.416464704247e-15 
   39       1.598541643824e-10       6.853723320206e-15       2.313901913652e-13       0.000000000000e+00       8.798122008334e-11       9.918353811129e-12      -7.821942560442e-15 
   40       1.623052817836e-10       7.464594120682e-15       2.239792007078e-13       0.000000000000e+00       8.356358032015e-11       9.454529331280e-12      -9.323688956228e-15 
   41       1.647649076539e-10       8.109600308593e-15       2.150703693243e-13       0.000000000000e+00       7.942581909174e-11       9.020968261119e-12      -1.037653386386e-14 
   42       1.672390192744e-10       8.789383950034e-15       2.045714819909e-13       0.000000000000e+00       7.555580809798e-11       8.616286611272e-12      -1.087670553430e-14 
   43       1.697364475380e-10       9.504628220514e-15       1.924102490079e-13       0.000000000000e+00       7.194328966195e-11       8.238455180668e-12      -1.085534275532e-14 
   44       1.722639905696e-10       1.025598397396e-14       1.785120020771e-13       0.000000000000e+00       6.856201030785e-11       7.883546411144e-12      -1.036138157159e-14 
   45       1.748259552156e-10       1.104402562218e-14       1.628199260275e-13       0.000000000000e+00       6.537910554663e-11       7.547058449753e-12      -9.472177142972e-15 
   46       1.774232180957e-10       1.186910666442e-14       1.453633534723e-13       0.000000000000e+00       6.238960087264e-11       7.228706244861e-12      -8.326211526183e-15 
   47       1.800534507021e-10       1.273145835351e-14       1.262096083879e-13       0.000000000000e+00       5.959005900362e-11       6.928812409022e-12      -7.102289746427e-15 
   48       1.827110394461e-10       1.363122464512e-14       1.054463670906e-13       0.000000000000e+00       5.696817457531e-11       6.646899463448e-12      -6.012759252622e-15 
   49       1.853868192841e-10       1.456845820901e-14       8.318266873458e-14       0.000000000000e+00       5.450211450305e-11       6.381627371210e-12      -5.305299218211e-15 
   50       1.880716859942e-10       1.554320003044e-14       5.951405012939e-14       0.000000000000e+00       5.216709951870e-11       6.131255896974e-12      -5.190212325515e-15 
   51       1.907692069247e-10       1.655575294107e-14       3.440444898020e-14       0.000000000000e+00       4.995878523474e-11       5.895324564246e-12      -5.594882311938e-15 
   52       1.934859728464e-10       1.760647544009e-14       7.773991324107e-15       0.000000000000e+00       4.787508738015e-11       5.673320725851e-12      -6.345759616431e-15 
   53       1.962279366176e-10       1.869570453935e-14      -2.046859620081e-14       0.000000000000e+00       4.590918400378e-11       5.464157719578e-12      -7.235357918227e-15 
   54       1.990003293342e-10       1.982375570824e-14      -5.042666412523e-14       0.000000000000e+00       4.404919659695e-11       5.266137099108e-12      -8.020537672160e-15 
   55       2.018071519309e-10       2.099083884227e-14      -8.219462917290e-14       0.000000000000e+00       4.228181469794e-11       5.077425064143e-12      -8.482250359141e-15 
   56       2.046496941760e-10       2.219678184952e-14      -1.157872763410e-13       0.000000000000e+00       4.060495465420e-11       4.897706874164e-12      -8.626083647690e-15 
   57       2.075275008939e-10       2.344123830057e-14      -1.511940811056e-13       0.000000000000e+00       3.901768702982e-11       4.726877271069e-12      -8.528529433163e-15 
   58       2.104386660751e-10       2.472376213409e-14      -1.883991958086e-13       0.000000000000e+00       3.751640700535e-11       4.564544939257e-12      -8.280551372773e-15 
   59       2.133797324855e-10       2.604380432989e-14      -2.273812824111e-13       0.000000000000e+00       3.609466914259e-11       4.410014770289e-12      -7.988262994227e-15 
   60       2.163455912761e-10       2.740070958198e-14      -2.681133452469e-13       0.000000000000e+00       3.474302214955e-11       4.262270127548e-12      -7.773605804374e-15 
   61       2.193312960517e-10       2.879382394274e-14      -3.105698192988e-13       0.000000000000e+00       3.345163391428e-11       4.120273089400e-12      -7.745423833931e-15 
   62       2.223382080123e-10       3.022285351632e-14      -3.547500726047e-13       0.000000000000e+00       3.221922895062e-11       3.983984053534e-12      -7.903566185172e-15 
   63       2.253690582869e-10       3.168758074051e-14      -4.006599064453e-13       0.000000000000e+00       3.104587297521e-11       3.853540563629e-12      -8.214364626749e-15 
   64       2.284261163299e-10       3.318776071052e-14      -4.483048270489e-13       0.000000000000e+00       2.993028447822e-11       3.728952031330e-12      -8.638081715176e-15 
   65       2.315111502744e-10       3.472312137306e-14      -4.976901085581e-13       0.000000000000e+00       2.886975802136e-11       3.610092090126e-12      -9.128649604777e-15 
   66       2.346253872861e-10       3.629336372043e-14      -5.488208559948e-13       0.000000000000e+00       2.786008753589e-11       3.496690949234e-12      -9.633408857631e-15 
   67       2.377694739175e-10       3.789816198462e-14      -6.017020682268e-13       0.000000000000e+00       2.689548962062e-11       3.388327747475e-12      -1.009284725352e-14 
   68       2.409437999267e-10       3.953703587046e-14      -6.563322491781e-13       0.000000000000e+00       2.597014788216e-11       3.284554390790e-12      -1.045351989099e-14 
   69       2.441496345494e-10       4.120893675835e-14      -7.126825974690e-13       0.000000000000e+00       2.508338078141e-11       3.185313294356e-12      -1.071043335098e-14 
   70       2.473881503013e-10       4.291257761878e-14      -7.707136937896e-13       0.000000000000e+00       2.423538794927e-11       3.090590939116e-12      -1.087281992666e-14 
   71       2.506600500780e-10       4.464655053117e-14      -8.303814793502e-13       0.000000000000e+00       2.342568718374e-11       3.000289670971e-12      -1.095179077386e-14 
   72       2.539655368050e-10       4.640932360535e-14      -8.916371538403e-13       0.000000000000e+00       2.265307920679e-11       2.914223417412e-12      -1.096041183846e-14 
   73       2.573042830867e-10       4.819923790298e-14      -9.544270733879e-13       0.000000000000e+00       2.191561242121e-11       2.832113404152e-12      -1.091377978372e-14 
   74       2.606754008565e-10       5.001450435896e-14      -1.018692648519e-12       0.000000000000e+00       2.121054766755e-11       2.753583871762e-12      -1.082909791767e-14 
   75       2.640774110264e-10       5.185320070292e-14      -1.084370242119e-12       0.000000000000e+00       2.053432298095e-11       2.678157792300e-12      -1.072575212049e-14 
   76       2.675088574010e-10       5.371347030214e-14      -1.151400060811e-12       0.000000000000e+00       1.988343746489e-11       2.605373754309e-12      -1.062107948677e-14 
   77       2.709703447549e-10       5.559416735749e-14      -1.219754926550e-12       0.000000000000e+00       1.925736689699e-11       2.535170693665e-12      -1.051661560087e-14 
   78       2.744628189950e-10       5.749432431558e-14      -1.289416590661e-12       0.000000000000e+00       1.865611823849e-11       2.467565864193e-12      -1.040946567900e-14 
   79       2.779869390047e-10       5.941296142965e-14      -1.360367286902e-12       0.000000000000e+00       1.807934155376e-11       2.402538123641e-12      -1.029637717428e-14 
   80       2.815430595050e-10       6.134908782157e-14      -1.432589813848e-12       0.000000000000e+00       1.752631361439e-11       2.340026134973e-12      -1.017372737974e-14 
   81       2.851312139147e-10       6.330170254382e-14      -1.506067617264e-12       0.000000000000e+00       1.699592150331e-11       2.279926567650e-12      -1.003751103131e-14 
   82       2.887510972122e-10       6.526979564151e-14      -1.580784872485e-12       0.000000000000e+00       1.648664621890e-11       2.222092298926e-12      -9.883327910818e-15 
   83       2.924020487954e-10       6.725234921439e-14      -1.656726566786e-12       0.000000000000e+00       1.599654627912e-11       2.166330615129e-12      -9.706370449009e-15 
   84       2.960833918383e-10       6.924822545867e-14      -1.733871129242e-12       0.000000000000e+00       1.552372934507e-11       2.112451807621e-12      -9.503118088000e-15 
   85       2.997955535422e-10       7.125580714095e-14      -1.812166735986e-12       0.000000000000e+00       1.506789283962e-11       2.060428157070e-12      -9.276770259836e-15 
   86       3.035391000380e-10       7.327329919250e-14      -1.891551209631e-12       0.000000000000e+00       1.462900985719e-11       2.010258130094e-12      -9.032695539087e-15 
   87       3.073143854197e-10       7.529883560498e-14      -1.971959080304e-12       0.000000000000e+00       1.420685577928e-11       1.961917390251e-12      -8.776821011397e-15 
   88       3.111215405962e-10       7.733047859294e-14      -2.053321542766e-12       0.000000000000e+00       1.380100008063e-11       1.915357846296e-12      -8.515648561512e-15 
   89       3.149604621442e-10       7.936621775630e-14      -2.135566413537e-12       0.000000000000e+00       1.341079813533e-11       1.870506700439e-12      -8.256271161312e-15 
   90       3.188308011602e-10       8.140396924287e-14      -2.218618088025e-12       0.000000000000e+00       1.303538302294e-11       1.827265496601e-12      -8.006389157836e-15 
   91       3.227319521132e-10       8.344157491085e-14      -2.302397497644e-12       0.000000000000e+00       1.267365733461e-11       1.785509168674e-12      -7.774326561321e-15 
   92       3.266630416965e-10       8.547680149133e-14      -2.386822066941e-12       0.000000000000e+00       1.232428497922e-11       1.745085088775e-12      -7.569047333226e-15 
   93       3.306232146137e-10       8.750744752094e-14      -2.471811093800e-12       0.000000000000e+00       1.198600794699e-11       1.705849192482e-12      -7.398079155294e-15 
   94       3.346125643160e-10       8.953168435589e-14      -2.557302908793e-12       0.000000000000e+00       1.165866889489e-11       1.667782636849e-12      -7.260892157421e-15 
   95       3.386313222883e-10       9.154776513667e-14      -2.643240229330e-12       0.000000000000e+00       1.134232792413e-11       1.630891009730e-12      -7.154549831225e-15 
   96       3.426795666116e-10       9.355392222105e-14      -2.729564997677e-12       0.000000000000e+00       1.103694764302e-11       1.595168379264e-12      -7.075700548750e-15 
   97       3.467572148914e-10       9.554836782591e-14      -2.816218412524e-12       0.000000000000e+00       1.074238943377e-11       1.560596851090e-12      -7.020565126828e-15 
   98       3.508640171858e-10       9.752929466910e-14      -2.903140960546e-12       0.000000000000e+00       1.045840971919e-11       1.527146125547e-12      -6.984924391447e-15 
   99       3.549995489338e-10       9.949487661130e-14      -2.990272447974e-12       0.000000000000e+00       1.018465622951e-11       1.494773054888e-12      -6.964106742116e-15 
  100       3.591632038839e-10       1.014432692978e-13      -3.077552032156e-12       0.000000000000e+00       9.920664269102e-12       1.463421200480e-12      -6.952975716231e-15 
  101       3.633541870221e-10       1.033726108004e-13      -3.164918253129e-12       0.000000000000e+00       9.665852983250e-12       1.433020390016e-12      -6.945917553440e-15 
  102       3.675715075001e-10       1.052810222593e-13      -3.252309065180e-12       0.000000000000e+00       9.419521624924e-12       1.403486274720e-12      -6.936828760009e-15 
  103       3.718139715639e-10       1.071666085248e-13      -3.339661868414e-12       0.000000000000e+00       9.180845821528e-12       1.374719886554e-12      -6.919103673188e-15 
  104       3.760804289969e-10       1.090274841983e-13      -3.426912571426e-12       0.000000000000e+00       8.949064301760e-12       1.346631328587e-12      -6.887057117375e-15 
  105       3.803705655953e-10       1.108618543788e-13      -3.513992567128e-12       0.000000000000e+00       8.724075844224e-12       1.319215444485e-12      -6.840438027243e-15 
  106       3.846842050593e-10       1.126679460712e-13      -3.600831405346e-12       0.000000000000e+00       8.505916383445e-12       1.292485592959e-12      -6.780505204178e-15 
