# dimensionless total lensed [l(l+1)/2pi] C_l's
# for l=2 to 6000, i.e. number of multipoles equal to 5999
#
# -> if you prefer output in CAMB/HealPix/LensPix units/order, set 'format' to 'camb' in input file
# -> if you don't want to see such a header, set 'headers' to 'no' in input file
# -> for CMB lensing (phi), these are C_l^phi-phi for the lensing potential.
#    Remember the conversion factors:
#    C_l^dd (deflection) = l(l+1) C_l^phi-phi
#    C_l^gg (shear/convergence) = 1/4 (l(l+1))^2 C_l^phi-phi
#
# 1:l     2:TT                     3:EE                     4:TE                     5:BB                     6:phiphi                 7:TPhi                   8:Ephi               
    2       1.378681930409e-10       4.548641329822e-15       3.599697013597e-13       2.350795887957e-19       7.937666284161e-09       4.585194361639e-10      -1.901480812767e-12 
    3       1.303322828313e-10       6.241393604765e-15       4.168443648422e-13       4.702875216421e-19       4.986317731933e-09       3.263301216450e-10      -1.501199755627e-12 
    4       1.231953078812e-10       5.804113711724e-15       4.001546131723e-13       7.840939701845e-19       3.486005933039e-09       2.472507712329e-10      -1.037351450600e-12 
    5       1.178342633803e-10       4.176754802923e-15       3.489851370546e-13       1.176659697148e-18       2.608545573410e-09       1.953832140545e-10      -6.272722583009e-13 
    6       1.141351623717e-10       2.488819223339e-15       2.870595461358e-13       1.648177077391e-18       2.040805750516e-09       1.590791991472e-10      -3.065034166424e-13 
    7       1.117718673959e-10       1.356800231678e-15       2.288084908541e-13       2.198864877240e-18       1.647280205208e-09       1.324261066101e-10      -8.386561925638e-14 
    8       1.103465505977e-10       8.181458528233e-16       1.813581625002e-13       2.828962461065e-18       1.361338701429e-09       1.121641119280e-10       4.776153506887e-14 
    9       1.096796058032e-10       6.272417067541e-16       1.472655816305e-13       3.538723649199e-18       1.146560660048e-09       9.638870958010e-11       1.048846556418e-13 
   10       1.095874849065e-10       5.471818226512e-16       1.261890261100e-13       4.328410463132e-18       9.808842311172e-10       8.387657814725e-11       1.086931579049e-13 
   11       1.098834710358e-10       4.725831179329e-16       1.161646559362e-13       5.198286996003e-18       8.257460332777e-10       7.395396921628e-11       8.108852952687e-14 
   12       1.105417208121e-10       4.022859820193e-16       1.144410349987e-13       6.148613638627e-18       7.218949537112e-10       6.554623246424e-11       4.115288014282e-14 
   13       1.114358604989e-10       3.625933251321e-16       1.181261203902e-13       7.179641874038e-18       6.366002474207e-10       5.848776391975e-11       2.860422277214e-15 
   14       1.125080208533e-10       3.602454102552e-16       1.248683413295e-13       8.291609827482e-18       5.655919309296e-10       5.248887509454e-11      -2.521234647513e-14 
   15       1.137655873142e-10       3.817238578695e-16       1.329629860553e-13       9.484738725030e-18       5.057963566949e-10       4.741710167552e-11      -3.971590415391e-14 
   16       1.151561581552e-10       4.132389094071e-16       1.413161809744e-13       1.075923037399e-17       4.549348440459e-10       4.306670453432e-11      -4.166993058202e-14 
   17       1.166650050474e-10       4.531620794037e-16       1.494886048934e-13       1.211526573366e-17       4.112852061668e-10       3.923082421844e-11      -3.481499814048e-14 
   18       1.182672189944e-10       5.096069305012e-16       1.574713048804e-13       1.355300406631e-17       3.733824630671e-10       3.585857961568e-11      -2.379326792573e-14 
   19       1.199652817019e-10       5.880150975397e-16       1.654904624442e-13       1.507258636043e-17       3.406323234659e-10       3.291165321821e-11      -1.226107828969e-14 
   20       1.217193769450e-10       6.914041600791e-16       1.738411268723e-13       1.667413130598e-17       3.117771912904e-10       3.027237088703e-11      -3.851822180406e-15 
   21       1.235389102906e-10       8.180264282302e-16       1.827067519996e-13       1.835774572747e-17       2.863669566220e-10       2.793949332048e-11       2.353767466853e-16 
   22       1.254183756960e-10       9.641201573821e-16       1.921722200044e-13       2.012351984412e-17       2.637965749217e-10       2.590635616514e-11      -2.975517083547e-17 
   23       1.273579728008e-10       1.129656885886e-15       2.020485463063e-13       2.197153963215e-17       2.437575083401e-10       2.412053183205e-11      -3.497341819226e-15 
   24       1.293385425688e-10       1.315457707129e-15       2.119859136842e-13       2.390188204630e-17       2.257882416026e-10       2.249166691810e-11      -8.335831704081e-15 
   25       1.313580483807e-10       1.521234279542e-15       2.216116188284e-13       2.591462927506e-17       2.096789904404e-10       2.099057055353e-11      -1.308029636753e-14 
   26       1.334070709027e-10       1.746336566412e-15       2.305188373507e-13       2.800986307602e-17       1.951399151393e-10       1.959877368962e-11      -1.634608163669e-14 
   27       1.354955107651e-10       1.991361044150e-15       2.384470688870e-13       3.018767700607e-17       1.819978597094e-10       1.833266497189e-11      -1.759507034641e-14 
   28       1.376284634128e-10       2.257456486473e-15       2.452016613417e-13       3.244817250634e-17       1.700274181057e-10       1.720724436017e-11      -1.670554706604e-14 
   29       1.398093911295e-10       2.546461395923e-15       2.507566535274e-13       3.479147231973e-17       1.591678998809e-10       1.620818513979e-11      -1.424611454696e-14 
   30       1.420273722914e-10       2.860648143528e-15       2.551674655252e-13       3.721771225669e-17       1.493029706755e-10       1.529710442085e-11      -1.120377115089e-14 
   31       1.442613995784e-10       3.202296720160e-15       2.585200427537e-13       3.972704027901e-17       1.402318328952e-10       1.442881614967e-11      -8.650895973483e-15 
   32       1.465168831020e-10       3.572541283425e-15       2.608751938961e-13       4.231962377870e-17       1.319081434085e-10       1.360678382059e-11      -6.942586877070e-15 
   33       1.488003037177e-10       3.972082676866e-15       2.623074603850e-13       4.499564763528e-17       1.242736751069e-10       1.284718674017e-11      -6.226157581625e-15 
   34       1.511107384100e-10       4.401534581742e-15       2.628799424814e-13       4.775531079844e-17       1.172223012149e-10       1.216087947993e-11      -6.561172703406e-15 
   35       1.534474674519e-10       4.861636928175e-15       2.625000309519e-13       5.059881541041e-17       1.107182013280e-10       1.154172943409e-11      -7.620438841236e-15 
   36       1.558032449084e-10       5.353102737866e-15       2.610113491210e-13       5.352637614241e-17       1.047093706089e-10       1.097318581160e-11      -8.871698696771e-15 
   37       1.581675917449e-10       5.876607276674e-15       2.582506755050e-13       5.653821335302e-17       9.911782391308e-11       1.043643412467e-11      -9.772490087254e-15 
   38       1.605483690522e-10       6.432967418458e-15       2.541201741876e-13       5.963451549403e-17       9.392927172075e-11       9.930163422745e-12      -1.020153139551e-14 
   39       1.629562497960e-10       7.023014766316e-15       2.485374275800e-13       6.281546536525e-17       8.912741730396e-11       9.456727070019e-12      -1.016546340154e-14 
   40       1.653983652941e-10       7.647544503756e-15       2.414156871118e-13       6.608125058040e-17       8.466667710554e-11       9.016613976536e-12      -9.684786356601e-15 
   41       1.678777469459e-10       8.307288186987e-15       2.326842955772e-13       6.943204721964e-17       8.048809761559e-11       8.608605752943e-12      -8.817295480056e-15 
   42       1.703925222761e-10       9.002827396756e-15       2.223586971022e-13       7.286796365334e-17       7.657948186683e-11       8.230754888467e-12      -7.734822435406e-15 
   43       1.729356943929e-10       9.734647827183e-15       2.104926945835e-13       7.638907894484e-17       7.293053419655e-11       7.879413297972e-12      -6.673394532038e-15 
   44       1.754947724589e-10       1.050315751100e-14       1.971607777544e-13       7.999545710044e-17       6.951481434012e-11       7.548758748979e-12      -5.915719418735e-15 
   45       1.780568144229e-10       1.130873329082e-14       1.824316553498e-13       8.368713462100e-17       6.629920314927e-11       7.232571907420e-12      -5.712596026705e-15 
   46       1.806264379775e-10       1.215188662460e-14       1.662767973937e-13       8.746408072226e-17       6.327870417737e-11       6.930581850929e-12      -6.012872592976e-15 
   47       1.832124109647e-10       1.303314025771e-14       1.486364406573e-13       9.132622377584e-17       6.044985930644e-11       6.643742698746e-12      -6.657273591191e-15 
   48       1.858224759124e-10       1.395298066587e-14       1.294443290095e-13       9.527346039617e-17       5.780025129873e-11       6.372410974900e-12      -7.450664267175e-15 
   49       1.884632065406e-10       1.491185680251e-14       1.086272362027e-13       9.930565392241e-17       5.530783724671e-11       6.116295641735e-12      -8.160027044071e-15 
   50       1.911391735115e-10       1.591013448162e-14       8.611592669065e-14       1.034226391391e-16       5.294759867986e-11       5.874680221070e-12      -8.574136781050e-15 
   51       1.938505076261e-10       1.694794783489e-14       6.188265268486e-14       1.076242414711e-16       5.071516631565e-11       5.647276158702e-12      -8.706377372315e-15 
   52       1.965944271468e-10       1.802530536903e-14       3.591301035532e-14       1.119102603747e-16       4.860845580749e-11       5.433514725926e-12      -8.643479513480e-15 
   53       1.993656989177e-10       1.914212754510e-14       8.195450972838e-15       1.162804623586e-16       4.662059696791e-11       5.232258896349e-12      -8.489492463114e-15 
   54       2.021564623652e-10       2.029824343814e-14      -2.127865804538e-14       1.207345797596e-16       4.473961153173e-11       5.041766183525e-12      -8.366663923344e-15 
   55       2.049590631675e-10       2.149346242847e-14      -5.251715350941e-14       1.252723421346e-16       4.295207352379e-11       4.860184386295e-12      -8.386291171265e-15 
   56       2.077757818061e-10       2.272781778388e-14      -8.553419426379e-14       1.298935823759e-16       4.125589341145e-11       4.687268177169e-12      -8.550779055838e-15 
   57       2.106112135171e-10       2.400137773751e-14      -1.203448046702e-13       1.345981548118e-16       3.965014538693e-11       4.523023858568e-12      -8.828792284769e-15 
   58       2.134694129037e-10       2.531417534981e-14      -1.569628715319e-13       1.393859049456e-16       3.813119957807e-11       4.367197774204e-12      -9.182868691577e-15 
   59       2.163538351951e-10       2.666620809143e-14      -1.954011680385e-13       1.442566695012e-16       3.669255497790e-11       4.219259909370e-12      -9.569129164918e-15 
   60       2.192672775069e-10       2.805743742616e-14      -2.356713777108e-13       1.492102764696e-16       3.532467237430e-11       4.078387491215e-12      -9.936987577928e-15 
   61       2.222118481976e-10       2.948771013723e-14      -2.777794065910e-13       1.542465833423e-16       3.401762669534e-11       3.943707241730e-12      -1.023981940653e-14 
   62       2.251889997905e-10       3.095650261410e-14      -3.217100360557e-13       1.593656017352e-16       3.277013770536e-11       3.815122779440e-12      -1.047042213589e-14 
   63       2.281993992392e-10       3.246311816674e-14      -3.674388519748e-13       1.645674009475e-16       3.158227910118e-11       3.692644680518e-12      -1.063303581066e-14 
   64       2.312428437804e-10       3.400675737480e-14      -4.149365294178e-13       1.698520734752e-16       3.045276189067e-11       3.576140183710e-12      -1.073314320326e-14 
   65       2.343182030844e-10       3.558651518744e-14      -4.641687070981e-13       1.752197362701e-16       2.937885678027e-11       3.465324997475e-12      -1.077752745411e-14 
   66       2.374233614068e-10       3.720137802326e-14      -5.150958618173e-13       1.806705319964e-16       2.835631656252e-11       3.359755107119e-12      -1.077432971190e-14 
   67       2.405551597397e-10       3.885022087023e-14      -5.676731829094e-13       1.862046302899e-16       2.737929850361e-11       3.258818581931e-12      -1.073310677383e-14 
   68       2.437105762024e-10       4.053190356705e-14      -6.218587041026e-13       1.918222166315e-16       2.644192633431e-11       3.161897833303e-12      -1.066317745072e-14 
   69       2.468906742613e-10       4.224558878442e-14      -6.776398931382e-13       1.975234535429e-16       2.554351723672e-11       3.068912880905e-12      -1.056814372892e-14 
   70       2.500973542772e-10       4.399048356134e-14      -7.350122491095e-13       2.033085137517e-16       2.468427942252e-11       2.979873954301e-12      -1.045035789822e-14 
   71       2.533321603399e-10       4.576574546748e-14      -7.939716058466e-13       2.091775928039e-16       2.386373120134e-11       2.894717017027e-12      -1.031254922574e-14 
   72       2.565962540875e-10       4.757048223973e-14      -8.545142175483e-13       2.151309100045e-16       2.308066530180e-11       2.813299933091e-12      -1.015783782953e-14 
   73       2.598903885271e-10       4.940375141870e-14      -9.166368444134e-13       2.211687093594e-16       2.233311319271e-11       2.735398633462e-12      -9.989748552213e-15 
   74       2.632148818536e-10       5.126455998522e-14      -9.803368382719e-13       2.272912605156e-16       2.161830940414e-11       2.660703282575e-12      -9.812224834559e-15 
   75       2.665695912703e-10       5.315186399688e-14      -1.045612228217e-12       2.334988597034e-16       2.093265584858e-11       2.588814444823e-12      -9.629642589153e-15 
   76       2.699542734209e-10       5.506453772461e-14      -1.112454178156e-12       2.397917815505e-16       2.027261577165e-11       2.519344637577e-12      -9.446248014826e-15 
   77       2.733697994393e-10       5.700127536844e-14      -1.180822582294e-12       2.461701223004e-16       1.963766267346e-11       2.452252843897e-12      -9.264322017141e-15 
   78       2.768171149353e-10       5.896067067550e-14      -1.250666154267e-12       2.526339295820e-16       1.902780681438e-11       2.387564318529e-12      -9.085704711557e-15 
   79       2.802968550813e-10       6.094124487700e-14      -1.321929590778e-12       2.591832489335e-16       1.844269694410e-11       2.325268967527e-12      -8.912343815391e-15 
   80       2.838093263599e-10       6.294144569938e-14      -1.394553500808e-12       2.658181237373e-16       1.788160368554e-11       2.265319675783e-12      -8.746296708873e-15 
   81       2.873544883117e-10       6.495964637535e-14      -1.468474334827e-12       2.725385951531e-16       1.734340291882e-11       2.207630634562e-12      -8.589732496214e-15 
   82       2.909319352825e-10       6.699414465500e-14      -1.543624314006e-12       2.793447020522e-16       1.682655916516e-11       2.152075669030e-12      -8.444934066665e-15 
   83       2.945408781712e-10       6.904316181690e-14      -1.619931359429e-12       2.862364809509e-16       1.632910897081e-11       2.098486565794e-12      -8.314300155578e-15 
   84       2.981805030291e-10       7.110490387632e-14      -1.697325128054e-12       2.932139843836e-16       1.584913856538e-11       2.046695999804e-12      -8.199686664460e-15 
   85       3.018511551446e-10       7.317775903494e-14      -1.775756425363e-12       3.002773396656e-16       1.538634421624e-11       1.996678155144e-12      -8.100300643565e-15 
   86       3.055533187021e-10       7.526013130318e-14      -1.855180896097e-12       3.074266997957e-16       1.494070128580e-11       1.948428458193e-12      -8.014459331790e-15 
   87       3.092872456407e-10       7.735038126902e-14      -1.935553235013e-12       3.146622261235e-16       1.451198476967e-11       1.901920141654e-12      -7.940210945243e-15 
   88       3.130529437351e-10       7.944682615436e-14      -2.016827218734e-12       3.219840885934e-16       1.409976098781e-11       1.857103321656e-12      -7.875325633409e-15 
   89       3.168501646770e-10       8.154773987147e-14      -2.098955737591e-12       3.293924659880e-16       1.370337927553e-11       1.813904074854e-12      -7.817286435326e-15 
   90       3.206783921564e-10       8.365135307941e-14      -2.181890827472e-12       3.368875461716e-16       1.332196367457e-11       1.772223515534e-12      -7.763280235754e-15 
   91       3.245368299427e-10       8.575585324043e-14      -2.265583701669e-12       3.444695263345e-16       1.295440462420e-11       1.731936872712e-12      -7.710188721345e-15 
   92       3.284243899659e-10       8.785938467643e-14      -2.349984782718e-12       3.521386132363e-16       1.259935065221e-11       1.692892567239e-12      -7.654579336815e-15 
   93       3.323400368936e-10       8.996007234859e-14      -2.435042229097e-12       3.598950810193e-16       1.225552925860e-11       1.654949473910e-12      -7.593474191890e-15 
   94       3.362839070318e-10       9.205609716501e-14      -2.520697192646e-12       3.677394540651e-16       1.192278281954e-11       1.618097123071e-12      -7.526808710794e-15 
   95       3.402563364529e-10       9.414563215640e-14      -2.606887903424e-12       3.756723522183e-16       1.160117384598e-11       1.582351955113e-12      -7.455327763301e-15 
   96       3.442575125639e-10       9.622682013892e-14      -2.693551122341e-12       3.836944366874e-16       1.129066593380e-11       1.547720352888e-12      -7.379842275231e-15 
   97       3.482874670809e-10       9.829777409628e-14      -2.780622152344e-12       3.918064110787e-16       1.099111997364e-11       1.514198242967e-12      -7.301230863432e-15 
   98       3.523460690041e-10       1.003565775618e-13      -2.868034849599e-12       4.000090224304e-16       1.070229036076e-11       1.481770696899e-12      -7.220441470750e-15 
   99       3.564330175927e-10       1.024012850004e-13      -2.955721634683e-12       4.083030622463e-16       1.042382120486e-11       1.450411532479e-12      -7.138493001000e-15 
  100       3.605478353393e-10       1.044299221908e-13      -3.043613503762e-12       4.166893675303e-16       1.015524253994e-11       1.420082915001e-12      -7.056476953946e-15 
  101       3.646898609451e-10       1.064404866075e-13      -3.131640039779e-12       4.251688218194e-16       9.895966534075e-12       1.390734958530e-12      -6.975559060266e-15 
  102       3.688582422946e-10       1.084309478029e-13      -3.219729423639e-12       4.337423562188e-16       9.645283699339e-12       1.362305327151e-12      -6.896980916535e-15 
  103       3.730519294303e-10       1.103992477893e-13      -3.307808445392e-12       4.424109504350e-16       9.402359101571e-12       1.334718836242e-12      -6.822061620189e-15 
  104       3.772698997611e-10       1.123433554188e-13      -3.395803713967e-12       4.511755488676e-16       9.166421748719e-12       1.307904683504e-12      -6.751900721989e-15 
  105       3.815118834659e-10       1.142614370667e-13      -3.483645448387e-12       4.600367937471e-16       8.937370055861e-12       1.281851651824e-12      -6.686437862291e-15 
  106       3.857777234408e-10       1.161517098245e-13      -3.571264221924e-12       4.689952577079e-16       8.715241484482e-12       1.256559654868e-12      -6.625268562038e-15 
  107       3.900671473964e-10       1.180123905249e-13      -3.658589833353e-12       4.780515256105e-16       8.500025020479e-12       1.232022570684e-12      -6.567929934349e-15 
