# dimensionless total [l(l+1)/2pi] C_l's
# for l=2 to 6500, i.e. number of multipoles equal to 6499
#
# -> if you prefer output in CAMB/HealPix/LensPix units/order, set 'format' to 'camb' in input file
# -> if you don't want to see such a header, set 'headers' to 'no' in input file
# -> for CMB lensing (phi), these are C_l^phi-phi for the lensing potential.
#    Remember the conversion factors:
#    C_l^dd (deflection) = l(l+1) C_l^phi-phi
#    C_l^gg (shear/convergence) = 1/4 (l(l+1))^2 C_l^phi-phi
#
# 1:l     2:TT                     3:EE                     4:TE                     5:BB                     6:phiphi                 7:TPhi                   8:Ephi               
    2       1.438174668032e-10       5.927024153673e-15       4.042573760043e-13       0.000000000000e+00       8.041739783140e-09       4.881632650410e-10      -2.164914778365e-12 
    3       1.351558851168e-10       8.987715382524e-15       4.916434845475e-13       0.000000000000e+00       4.950215759587e-09       3.461237921916e-10      -1.805475153909e-12 
    4       1.270378009668e-10       9.292839867186e-15       4.909419227466e-13       0.000000000000e+00       3.450189939302e-09       2.623555288576e-10      -1.340244236276e-12 
    5       1.208689837957e-10       7.499172595202e-15       4.434887429482e-13       0.000000000000e+00       2.580087093998e-09       2.074540273755e-10      -8.993365917050e-13 
    6       1.165127770689e-10       4.991521456621e-15       3.762318434024e-13       0.000000000000e+00       2.018241330452e-09       1.689564774281e-10      -5.268375659465e-13 
    7       1.136209308733e-10       2.887597546981e-15       3.067180052023e-13       0.000000000000e+00       1.629925417221e-09       1.406453343102e-10      -2.405941642605e-13 
    8       1.117896708723e-10       1.621293007086e-15       2.448495176881e-13       0.000000000000e+00       1.347822428669e-09       1.190822019261e-10      -4.308155123895e-14 
    9       1.108142815250e-10       1.070155222928e-15       1.956017665973e-13       0.000000000000e+00       1.135104688384e-09       1.022626366986e-10       7.342780246259e-14 
   10       1.105017845766e-10       8.938749569915e-16       1.605637667881e-13       0.000000000000e+00       9.702203882720e-10       8.890109997295e-11       1.234188715025e-13 
   11       1.106477489647e-10       8.133869183854e-16       1.391444750122e-13       0.000000000000e+00       8.204014124461e-10       7.830816648007e-11       1.246155386737e-13 
   12       1.111409671291e-10       7.146750113756e-16       1.293218955831e-13       0.000000000000e+00       7.172213348249e-10       6.937872929684e-11       9.649607784711e-14 
   13       1.119443763320e-10       6.078656170177e-16       1.281860881141e-13       0.000000000000e+00       6.324625533776e-10       6.174740032420e-11       5.450722315330e-14 
   14       1.129841186630e-10       5.373993789374e-16       1.326870557044e-13       0.000000000000e+00       5.618941550413e-10       5.546282510628e-11       1.204254122584e-14 
   15       1.141842754995e-10       5.216212140972e-16       1.402073867790e-13       0.000000000000e+00       5.024663264618e-10       5.019563270748e-11      -2.233636925664e-14 
   16       1.155498724286e-10       5.450072065222e-16       1.487968466446e-13       0.000000000000e+00       4.519139714512e-10       4.556206875189e-11      -4.442241229413e-14 
   17       1.170512196902e-10       5.816841936651e-16       1.572388395916e-13       0.000000000000e+00       4.085245117501e-10       4.145390535336e-11      -5.342848171512e-14 
   18       1.186310005148e-10       6.180086854093e-16       1.649150900890e-13       0.000000000000e+00       3.708476401147e-10       3.786142017016e-11      -5.137653035651e-14 
   19       1.203122138519e-10       6.611831337569e-16       1.718342361430e-13       0.000000000000e+00       3.382898592433e-10       3.475908131504e-11      -4.153277792793e-14 
   20       1.220862443715e-10       7.251728428491e-16       1.782477315866e-13       0.000000000000e+00       3.096043070715e-10       3.202716406317e-11      -2.845862446355e-14 
   21       1.239349136862e-10       8.181975497176e-16       1.845800462894e-13       0.000000000000e+00       2.843437556039e-10       2.959565514105e-11      -1.546878613493e-14 
   22       1.258099881888e-10       9.450400591186e-16       1.913276782277e-13       0.000000000000e+00       2.619061004882e-10       2.737969696623e-11      -5.594844673968e-15 
   23       1.277320610270e-10       1.101938947130e-15       1.987147141069e-13       0.000000000000e+00       2.419848286274e-10       2.539560933057e-11      -1.312168303196e-18 
   24       1.297201801891e-10       1.281890068365e-15       2.068058623037e-13       0.000000000000e+00       2.241216047594e-10       2.366011177908e-11       1.041075262425e-15 
   25       1.317662591159e-10       1.484083902528e-15       2.153810527013e-13       0.000000000000e+00       2.081075322534e-10       2.212163759473e-11      -1.670279433551e-15 
   26       1.338401455796e-10       1.709234277503e-15       2.240557955406e-13       0.000000000000e+00       1.936540294475e-10       2.069644322746e-11      -6.674145419850e-15 
   27       1.359432840777e-10       1.956843382032e-15       2.324341225123e-13       0.000000000000e+00       1.805893778682e-10       1.937947726577e-11      -1.236179104158e-14 
   28       1.380773554743e-10       2.225898105598e-15       2.400866127394e-13       0.000000000000e+00       1.686901622144e-10       1.817990703392e-11      -1.704349517319e-14 
   29       1.402509773176e-10       2.516137562423e-15       2.467248813591e-13       0.000000000000e+00       1.578959749134e-10       1.709437353295e-11      -2.007868328738e-14 
   30       1.424627964085e-10       2.827369675149e-15       2.520721284109e-13       0.000000000000e+00       1.480908415381e-10       1.610389637586e-11      -2.112984190662e-14 
   31       1.447012032475e-10       3.159789684414e-15       2.558769584457e-13       0.000000000000e+00       1.390748524690e-10       1.518159512564e-11      -2.000916886544e-14 
   32       1.469705428730e-10       3.516115324057e-15       2.581544865899e-13       0.000000000000e+00       1.308019526472e-10       1.432641069551e-11      -1.722694792181e-14 
   33       1.492721151670e-10       3.900321008101e-15       2.590411328018e-13       0.000000000000e+00       1.232144180957e-10       1.354044568785e-11      -1.367620122056e-14 
   34       1.516004204985e-10       4.316321755936e-15       2.587071308560e-13       0.000000000000e+00       1.162069189664e-10       1.282049640925e-11      -1.033716926850e-14 
   35       1.539583558289e-10       4.765125132874e-15       2.572517163667e-13       0.000000000000e+00       1.097437896528e-10       1.216130824100e-11      -7.673246530274e-15 
   36       1.563456172735e-10       5.246673409197e-15       2.547757875700e-13       0.000000000000e+00       1.037732075901e-10       1.155241999383e-11      -6.035484250123e-15 
   37       1.587570282104e-10       5.760787304038e-15       2.513672088165e-13       0.000000000000e+00       9.821753816347e-11       1.098085887518e-11      -5.701666590473e-15 
   38       1.611936119372e-10       6.307919737477e-15       2.469491249452e-13       0.000000000000e+00       9.306254813587e-11       1.044533926141e-11      -6.455582104595e-15 
   39       1.636539651466e-10       6.888627950454e-15       2.413805973709e-13       0.000000000000e+00       8.829204900827e-11       9.946154610124e-12      -7.861631694375e-15 
   40       1.661305027615e-10       7.503362556183e-15       2.344948441889e-13       0.000000000000e+00       8.386076361118e-11       9.481080152868e-12      -9.367488610618e-15 
   41       1.686140096405e-10       8.152541084322e-15       2.261216538231e-13       0.000000000000e+00       7.971012840443e-11       9.046359010386e-12      -1.042689136166e-14 
   42       1.711105624707e-10       8.836814539919e-15       2.161678463361e-13       0.000000000000e+00       7.582798933309e-11       8.640602850396e-12      -1.093477189843e-14 
   43       1.736290769742e-10       9.556875622613e-15       2.045598926956e-13       0.000000000000e+00       7.220406648354e-11       8.261771569001e-12      -1.092070134273e-14 
   44       1.761763565687e-10       1.031338399269e-14       1.912217349567e-13       0.000000000000e+00       6.881203640632e-11       7.905920391487e-12      -1.043174019814e-14 
   45       1.787566759380e-10       1.110692409628e-14       1.760952373699e-13       0.000000000000e+00       6.561894447452e-11       7.568529167428e-12      -9.543584978951e-15 
   46       1.813710030263e-10       1.193786736633e-14       1.592092334370e-13       0.000000000000e+00       6.261980753901e-11       7.249312133875e-12      -8.395078691494e-15 
   47       1.840170970914e-10       1.280646611026e-14       1.406308304477e-13       0.000000000000e+00       5.981118332567e-11       6.948594895550e-12      -7.166113327010e-15 
   48       1.866893771762e-10       1.371288668134e-14       1.204475698512e-13       0.000000000000e+00       5.718073432788e-11       6.665901316676e-12      -6.070367154912e-15 
   49       1.893786502801e-10       1.465720554569e-14       9.876844397272e-14       0.000000000000e+00       5.470656611280e-11       6.399890914372e-12      -5.357107727452e-15 
   50       1.920757626319e-10       1.563948680701e-14       7.568892854563e-14       0.000000000000e+00       5.236382867968e-11       6.148821995928e-12      -5.238100534117e-15 
   51       1.947843525574e-10       1.666004871332e-14       5.117253193991e-14       0.000000000000e+00       5.014816809947e-11       5.912234521866e-12      -5.640762763414e-15 
   52       1.975110893612e-10       1.771926269200e-14       2.513885126655e-14       0.000000000000e+00       4.805749677942e-11       5.689615817680e-12      -6.391122524168e-15 
   53       2.002619676307e-10       1.881747811738e-14      -2.503914162860e-15       0.000000000000e+00       4.608497446253e-11       5.479877786702e-12      -7.281176434412e-15 
   54       2.030422200245e-10       1.995502221102e-14      -3.185963949358e-14       0.000000000000e+00       4.421868832439e-11       5.281319044392e-12      -8.067168186041e-15 
   55       2.058558341975e-10       2.113211648558e-14      -6.302330109333e-14       0.000000000000e+00       4.244528888224e-11       5.092101994100e-12      -8.529467224663e-15 
   56       2.087041628410e-10       2.234860199769e-14      -9.601040538354e-14       0.000000000000e+00       4.076268830975e-11       4.911909586976e-12      -8.673567693399e-15 
   57       2.115868155883e-10       2.360414566737e-14      -1.308112138335e-13       0.000000000000e+00       3.916995632087e-11       4.740633812011e-12      -8.576006712567e-15 
   58       2.145019242230e-10       2.489831447626e-14      -1.674106936450e-13       0.000000000000e+00       3.766347856650e-11       4.577879398652e-12      -8.327802841771e-15 
   59       2.174460400442e-10       2.623057211636e-14      -2.057883509073e-13       0.000000000000e+00       3.623679085392e-11       4.422946013736e-12      -8.035134649032e-15 
   60       2.204140312310e-10       2.760027563879e-14      -2.459180637528e-13       0.000000000000e+00       3.488041336635e-11       4.274810458429e-12      -7.820019279926e-15 
   61       2.234009222467e-10       2.900678406178e-14      -2.877751037837e-13       0.000000000000e+00       3.358448409250e-11       4.132428644009e-12      -7.791375034214e-15 
   62       2.264081267090e-10       3.044982026334e-14      -3.313594194922e-13       0.000000000000e+00       3.234772489569e-11       3.995761001748e-12      -7.949083828257e-15 
   63       2.294384377933e-10       3.192918474214e-14      -3.766773067691e-13       0.000000000000e+00       3.117020295368e-11       3.864946692909e-12      -8.259500653747e-15 
   64       2.324941694437e-10       3.344465102339e-14      -4.237347418241e-13       0.000000000000e+00       3.005063369875e-11       3.739996634968e-12      -8.682913398669e-15 
   65       2.355771153570e-10       3.499596585996e-14      -4.725374424190e-13       0.000000000000e+00       2.898630385392e-11       3.620785844892e-12      -9.173281723382e-15 
   66       2.386885079676e-10       3.658284943359e-14      -5.230909291016e-13       0.000000000000e+00       2.797299446930e-11       3.507045782423e-12      -9.677975936720e-15 
   67       2.418289774308e-10       3.820499555597e-14      -5.754005864394e-13       0.000000000000e+00       2.700490395837e-11       3.398356693351e-12      -1.013751587207e-14 
   68       2.449988949142e-10       3.986194238671e-14      -6.294653100537e-13       0.000000000000e+00       2.607619755869e-11       3.294271335432e-12      -1.049848119240e-14 
   69       2.481995749255e-10       4.155265371836e-14      -6.852568160336e-13       0.000000000000e+00       2.518619232979e-11       3.194732383110e-12      -1.075586371281e-14 
   70       2.514322440449e-10       4.327585282019e-14      -7.427362298048e-13       0.000000000000e+00       2.433508933863e-11       3.099726233721e-12      -1.091886710877e-14 
   71       2.546976475462e-10       4.503014135993e-14      -8.018600284129e-13       0.000000000000e+00       2.352240546017e-11       3.009154888685e-12      -1.099856917520e-14 
   72       2.579960182101e-10       4.681399629326e-14      -8.625799377107e-13       0.000000000000e+00       2.274693801017e-11       2.922831656956e-12      -1.100799756768e-14 
   73       2.613270451372e-10       4.862576675336e-14      -9.248428295460e-13       0.000000000000e+00       2.200672937805e-11       2.840476858474e-12      -1.096220554382e-14 
   74       2.646898425611e-10       5.046367094052e-14      -9.885906189496e-13       0.000000000000e+00       2.129903165966e-11       2.761713527610e-12      -1.087834770445e-14 
   75       2.680829186614e-10       5.232579301162e-14      -1.053760161322e-12       0.000000000000e+00       2.062027129015e-11       2.686063116617e-12      -1.077575573497e-14 
   76       2.715048041585e-10       5.421028295594e-14      -1.120292169525e-12       0.000000000000e+00       1.996693593644e-11       2.613062778726e-12      -1.067171710718e-14 
   77       2.749561393721e-10       5.611600517732e-14      -1.188160069700e-12       0.000000000000e+00       1.933850006892e-11       2.542651406255e-12      -1.056775506244e-14 
   78       2.784379128559e-10       5.804200308250e-14      -1.257346245106e-12       0.000000000000e+00       1.873497110548e-11       2.474846509505e-12      -1.046097269997e-14 
   79       2.819508180070e-10       5.998730762226e-14      -1.327833563848e-12       0.000000000000e+00       1.815599829068e-11       2.409627107926e-12      -1.034811588906e-14 
   80       2.854952354083e-10       6.195093834329e-14      -1.399605461024e-12       0.000000000000e+00       1.760085624034e-11       2.346931926653e-12      -1.022556089605e-14 
   81       2.890712151712e-10       6.393190444019e-14      -1.472646020875e-12       0.000000000000e+00       1.706842848595e-11       2.286657593043e-12      -1.008930201134e-14 
   82       2.926784592777e-10       6.592920580744e-14      -1.546940058929e-12       0.000000000000e+00       1.655719101927e-11       2.228656833217e-12      -9.934939176388e-15 
   83       2.963163039229e-10       6.794183409127e-14      -1.622473204154e-12       0.000000000000e+00       1.606519583675e-11       2.172736668592e-12      -9.757665610743e-15 
   84       2.999840690314e-10       6.996866023551e-14      -1.699224491579e-12       0.000000000000e+00       1.559054422853e-11       2.118707036284e-12      -9.553965154450e-15 
   85       3.036822120592e-10       7.200807339476e-14      -1.777142549294e-12       0.000000000000e+00       1.513293284103e-11       2.066539861755e-12      -9.327054701436e-15 
   86       3.074113339826e-10       7.405828381101e-14      -1.856165596014e-12       0.000000000000e+00       1.469233494008e-11       2.016233173094e-12      -9.082325515993e-15 
   87       3.111718178136e-10       7.611743015443e-14      -1.936228536536e-12       0.000000000000e+00       1.426852535167e-11       1.967762079915e-12      -8.825729857356e-15 
   88       3.149638171137e-10       7.818357866767e-14      -2.017262918005e-12       0.000000000000e+00       1.386107223740e-11       1.921077817361e-12      -8.563797341421e-15 
   89       3.187872445067e-10       8.025472231012e-14      -2.099196886194e-12       0.000000000000e+00       1.346932886997e-11       1.876106790096e-12      -8.303651302465e-15 
   90       3.226417601928e-10       8.232877990217e-14      -2.181955141772e-12       0.000000000000e+00       1.309242540874e-11       1.832749616306e-12      -8.053025154867e-15 
   91       3.265267604612e-10       8.440359526957e-14      -2.265458896579e-12       0.000000000000e+00       1.272926067518e-11       1.790880171694e-12      -7.820278754825e-15 
   92       3.304413662043e-10       8.647693638760e-14      -2.349625829905e-12       0.000000000000e+00       1.237849392840e-11       1.750344633482e-12      -7.614414762076e-15 
   93       3.343847180114e-10       8.854660255033e-14      -2.434375500978e-12       0.000000000000e+00       1.203886277911e-11       1.710997899337e-12      -7.442993605004e-15 
   94       3.383569371702e-10       9.061076617439e-14      -2.519646612615e-12       0.000000000000e+00       1.171020949040e-11       1.672821186263e-12      -7.305484121918e-15 
   95       3.423582886351e-10       9.266768105954e-14      -2.605382275265e-12       0.000000000000e+00       1.139259454459e-11       1.635820433338e-12      -7.198938453573e-15 
   96       3.463888801441e-10       9.471557956300e-14      -2.691524812888e-12       0.000000000000e+00       1.108598056078e-11       1.599990065690e-12      -7.119992015604e-15 
   97       3.504486549402e-10       9.675267322660e-14      -2.778015794122e-12       0.000000000000e+00       1.079022854720e-11       1.565312551535e-12      -7.064851014720e-15 
   98       3.545373844936e-10       9.877715340383e-14      -2.864796063460e-12       0.000000000000e+00       1.050509415355e-11       1.531757959213e-12      -7.029279964894e-15 
   99       3.586546612235e-10       1.007871918870e-13      -2.951805772414e-12       0.000000000000e+00       1.023022392333e-11       1.499283514228e-12      -7.008589203558e-15 
  100       3.627998912195e-10       1.027809415345e-13      -3.038984410689e-12       0.000000000000e+00       9.965151546241e-12       1.467833156284e-12      -6.997622407796e-15 
  101       3.669722869637e-10       1.047565368976e-13      -3.126270837352e-12       0.000000000000e+00       9.709294110509e-12       1.437337096320e-12      -6.990744110535e-15 
  102       3.711708600525e-10       1.067120948478e-13      -3.213603312002e-12       0.000000000000e+00       9.461948355234e-12       1.407711373552e-12      -6.981827216741e-15 
  103       3.753944139182e-10       1.086457152041e-13      -3.300919525942e-12       0.000000000000e+00       9.222286922754e-12       1.378857412505e-12      -6.964240519608e-15 
  104       3.796417972351e-10       1.105555068777e-13      -3.388155662588e-12       0.000000000000e+00       8.989545786789e-12       1.350685625714e-12      -6.932276839751e-15 
  105       3.839127187986e-10       1.124396689797e-13      -3.475243367011e-12       0.000000000000e+00       8.763623443854e-12       1.323190807063e-12      -6.885684044704e-15 
  106       3.882070296685e-10       1.142964218905e-13      -3.562112423232e-12       0.000000000000e+00       8.544556053995e-12       1.296386144592e-12      -6.825725680109e-15 
  107       3.925244679538e-10       1.161239836161e-13      -3.648691708676e-12       0.000000000000e+00       8.332331866052e-12       1.270279907729e-12      -6.753798310966e-15 
