# dimensionless total [l(l+1)/2pi] C_l's
# for l=2 to 6500, i.e. number of multipoles equal to 6499
#
# -> if you prefer output in CAMB/HealPix/LensPix units/order, set 'format' to 'camb' in input file
# -> if you don't want to see such a header, set 'headers' to 'no' in input file
# -> for CMB lensing (phi), these are C_l^phi-phi for the lensing potential.
#    Remember the conversion factors:
#    C_l^dd (deflection) = l(l+1) C_l^phi-phi
#    C_l^gg (shear/convergence) = 1/4 (l(l+1))^2 C_l^phi-phi
#
# 1:l     2:TT                     3:EE                     4:TE                     5:BB                     6:phiphi                 7:TPhi                   8:Ephi               
    2       1.378677221568e-10       4.548406250228e-15       3.599697053775e-13       0.000000000000e+00       7.937666284161e-09       4.585194361639e-10      -1.901480812767e-12 
    3       1.303313433525e-10       6.240923317190e-15       4.168443827460e-13       0.000000000000e+00       4.986317731933e-09       3.263301216450e-10      -1.501199755627e-12 
    4       1.231937471090e-10       5.803329617496e-15       4.001546646094e-13       0.000000000000e+00       3.486005933039e-09       2.472507712329e-10      -1.037351450600e-12 
    5       1.178319314990e-10       4.175578142359e-15       3.489852542131e-13       0.000000000000e+00       2.608545573410e-09       1.953832140545e-10      -6.272722583009e-13 
    6       1.141319130288e-10       2.487171043958e-15       2.870597764603e-13       0.000000000000e+00       2.040805750516e-09       1.590791991472e-10      -3.065034166424e-13 
    7       1.117675581954e-10       1.354601361613e-15       2.288088995075e-13       0.000000000000e+00       1.647280205208e-09       1.324261066101e-10      -8.386561925638e-14 
    8       1.103410434965e-10       8.153168800732e-16       1.813588345387e-13       0.000000000000e+00       1.361338701429e-09       1.121641119280e-10       4.776153506887e-14 
    9       1.096727674036e-10       6.237029646990e-16       1.472666238687e-13       0.000000000000e+00       1.146560660048e-09       9.638870958010e-11       1.048846556418e-13 
   10       1.095791866418e-10       5.428533820699e-16       1.261905686630e-13       0.000000000000e+00       9.808842311172e-10       8.387657814725e-11       1.086931579049e-13 
   11       1.098735892482e-10       4.673847855413e-16       1.161668534358e-13       0.000000000000e+00       8.257460332777e-10       7.395396921628e-11       8.108852952687e-14 
   12       1.105301367278e-10       3.961373053573e-16       1.144440674897e-13       0.000000000000e+00       7.218949537112e-10       6.554623246424e-11       4.115288014282e-14 
   13       1.114224601067e-10       3.554136034452e-16       1.181301939208e-13       0.000000000000e+00       6.366002474207e-10       5.848776391975e-11       2.860422277214e-15 
   14       1.124926946973e-10       3.519537108553e-16       1.248736882558e-13       0.000000000000e+00       5.655919309296e-10       5.248887509454e-11      -2.521234647513e-14 
   15       1.137482302141e-10       3.722390373345e-16       1.329698650879e-13       0.000000000000e+00       5.057963566949e-10       4.741710167552e-11      -3.971590415391e-14 
   16       1.151366688681e-10       4.024796388840e-16       1.413248769956e-13       0.000000000000e+00       4.549348440459e-10       4.306670453432e-11      -4.166993058202e-14 
   17       1.166432858884e-10       4.410468732255e-16       1.494994285779e-13       0.000000000000e+00       4.112852061668e-10       3.923082421844e-11      -3.481499814048e-14 
   18       1.182431754256e-10       4.960541776793e-16       1.574845921354e-13       0.000000000000e+00       3.733824630671e-10       3.585857961568e-11      -2.379326792573e-14 
   19       1.199388219536e-10       5.729430931689e-16       1.655065737847e-13       0.000000000000e+00       3.406323234659e-10       3.291165321821e-11      -1.226107828969e-14 
   20       1.216904115626e-10       6.747311417487e-16       1.738604465297e-13       0.000000000000e+00       3.117771912904e-10       3.027237088703e-11      -3.851822180406e-15 
   21       1.235073518244e-10       7.996706074984e-16       1.827296871438e-13       0.000000000000e+00       2.863669566220e-10       2.793949332048e-11       2.353767466853e-16 
   22       1.253841383058e-10       9.439997568214e-16       1.921991996749e-13       0.000000000000e+00       2.637965749217e-10       2.590635616514e-11      -2.975517083547e-17 
   23       1.273209720482e-10       1.107690169907e-15       2.020800204829e-13       0.000000000000e+00       2.437575083401e-10       2.412053183205e-11      -3.497341819226e-15 
   24       1.292986951223e-10       1.291563018487e-15       2.120223520581e-13       0.000000000000e+00       2.257882416026e-10       2.249166691810e-11      -8.335831704081e-15 
   25       1.313152719592e-10       1.495330068684e-15       2.216535097025e-13       0.000000000000e+00       2.096789904404e-10       2.099057055353e-11      -1.308029636753e-14 
   26       1.333612841126e-10       1.718341427047e-15       2.305666862321e-13       0.000000000000e+00       1.951399151393e-10       1.959877368962e-11      -1.634608163669e-14 
   27       1.354466331566e-10       1.961193743326e-15       2.385013971146e-13       0.000000000000e+00       1.819978597094e-10       1.833266497189e-11      -1.759507034641e-14 
   28       1.375764154689e-10       2.225035999927e-15       2.452630044145e-13       0.000000000000e+00       1.700274181057e-10       1.720724436017e-11      -1.670554706604e-14 
   29       1.397540945606e-10       2.511706938540e-15       2.508255592849e-13       0.000000000000e+00       1.591678998809e-10       1.620818513979e-11      -1.424611454696e-14 
   30       1.419687501249e-10       2.823479206635e-15       2.552444921333e-13       0.000000000000e+00       1.493029706755e-10       1.529710442085e-11      -1.120377115089e-14 
   31       1.441993762595e-10       3.162633112480e-15       2.586057563869e-13       0.000000000000e+00       1.402318328952e-10       1.442881614967e-11      -8.650895973483e-15 
   32       1.464513849125e-10       3.530303173361e-15       2.609701657950e-13       0.000000000000e+00       1.319081434085e-10       1.360678382059e-11      -6.942586877070e-15 
   33       1.487312590350e-10       3.927190636290e-15       2.624122640387e-13       0.000000000000e+00       1.242736751069e-10       1.284718674017e-11      -6.226157581625e-15 
   34       1.510380779304e-10       4.353909634927e-15       2.629951504722e-13       0.000000000000e+00       1.172223012149e-10       1.216087947993e-11      -6.561172703406e-15 
   35       1.533711244871e-10       4.811200614942e-15       2.626262106275e-13       0.000000000000e+00       1.107182013280e-10       1.154172943409e-11      -7.620438841236e-15 
   36       1.557231556794e-10       5.299777170323e-15       2.611490587172e-13       0.000000000000e+00       1.047093706089e-10       1.097318581160e-11      -8.871698696771e-15 
   37       1.580836956015e-10       5.820315202672e-15       2.584004598830e-13       0.000000000000e+00       9.911782391308e-11       1.043643412467e-11      -9.772490087254e-15 
   38       1.604606084092e-10       6.373632314925e-15       2.542825588418e-13       0.000000000000e+00       9.392927172075e-11       9.930163422745e-12      -1.020153139551e-14 
   39       1.628645702968e-10       6.960560916374e-15       2.487129134346e-13       0.000000000000e+00       8.912741730396e-11       9.456727070019e-12      -1.016546340154e-14 
   40       1.653027160754e-10       7.581897069011e-15       2.416047454843e-13       0.000000000000e+00       8.466667710554e-11       9.016613976536e-12      -9.684786356601e-15 
   41       1.677780807321e-10       8.238373291729e-15       2.328873625419e-13       0.000000000000e+00       8.048809761559e-11       8.608605752943e-12      -8.817295480056e-15 
   42       1.702887948474e-10       8.930572246546e-15       2.225761663788e-13       0.000000000000e+00       7.657948186683e-11       8.230754888467e-12      -7.734822435406e-15 
   43       1.728278645090e-10       9.658980808450e-15       2.107249110281e-13       0.000000000000e+00       7.293053419655e-11       7.879413297972e-12      -6.673394532038e-15 
   44       1.753828019618e-10       1.042400828529e-14       1.974080309225e-13       0.000000000000e+00       6.951481434012e-11       7.548758748979e-12      -5.915719418735e-15 
   45       1.779406681371e-10       1.122603289091e-14       1.826941732350e-13       0.000000000000e+00       6.629920314927e-11       7.232571907420e-12      -5.712596026705e-15 
   46       1.805060829121e-10       1.206556754942e-14       1.665547413649e-13       0.000000000000e+00       6.327870417737e-11       6.930581850929e-12      -6.012872592976e-15 
   47       1.830878160156e-10       1.294313657354e-14       1.489298991142e-13       0.000000000000e+00       6.044985930644e-11       6.643742698746e-12      -6.657273591191e-15 
   48       1.856936117515e-10       1.385922811172e-14       1.297533104071e-13       0.000000000000e+00       5.780025129873e-11       6.372410974900e-12      -7.450664267175e-15 
   49       1.883300454992e-10       1.481429289860e-14       1.089516618402e-13       0.000000000000e+00       5.530783724671e-11       6.116295641735e-12      -8.160027044071e-15 
   50       1.910016893912e-10       1.580869861847e-14       8.645562491785e-14       0.000000000000e+00       5.294759867986e-11       5.874680221070e-12      -8.574136781050e-15 
   51       1.937086752821e-10       1.684258129073e-14       6.223735835268e-14       0.000000000000e+00       5.071516631565e-11       5.647276158702e-12      -8.706377372315e-15 
   52       1.964482222271e-10       1.791595138475e-14       3.628236004037e-14       0.000000000000e+00       4.860845580749e-11       5.433514725926e-12      -8.643479513480e-15 
   53       1.992150976565e-10       1.902873142198e-14       8.578976522814e-15       0.000000000000e+00       4.662059696791e-11       5.232258896349e-12      -8.489492463114e-15 
   54       2.020014413666e-10       2.018075263764e-14      -2.088153612286e-14       0.000000000000e+00       4.473961153173e-11       5.041766183525e-12      -8.366663923344e-15 
   55       2.047995994096e-10       2.137182662469e-14      -5.210713009438e-14       0.000000000000e+00       4.295207352379e-11       4.860184386295e-12      -8.386291171265e-15 
   56       2.076118533862e-10       2.260198875566e-14      -8.511207487592e-14       0.000000000000e+00       4.125589341145e-11       4.687268177169e-12      -8.550779055838e-15 
   57       2.104427998247e-10       2.387130938465e-14      -1.199115076057e-13       0.000000000000e+00       3.965014538693e-11       4.523023858568e-12      -8.828792284769e-15 
   58       2.132964945816e-10       2.517982375515e-14      -1.565194325791e-13       0.000000000000e+00       3.813119957807e-11       4.367197774204e-12      -9.182868691577e-15 
   59       2.161763941010e-10       2.652753158314e-14      -1.949487452438e-13       0.000000000000e+00       3.669255497790e-11       4.219259909370e-12      -9.569129164918e-15 
   60       2.190852966750e-10       2.791439664002e-14      -2.352112561954e-13       0.000000000000e+00       3.532467237430e-11       4.078387491215e-12      -9.936987577928e-15 
   61       2.220253121635e-10       2.934026801767e-14      -2.773130011064e-13       0.000000000000e+00       3.401762669534e-11       3.943707241730e-12      -1.023981940653e-14 
   62       2.249978960993e-10       3.080462421470e-14      -3.212388860467e-13       0.000000000000e+00       3.277013770536e-11       3.815122779440e-12      -1.047042213589e-14 
   63       2.280037190379e-10       3.230677060624e-14      -3.669646225357e-13       0.000000000000e+00       3.158227910118e-11       3.692644680518e-12      -1.063303581066e-14 
   64       2.310425820820e-10       3.384590984874e-14      -4.144610143898e-13       0.000000000000e+00       3.045276189067e-11       3.576140183710e-12      -1.073314320326e-14 
   65       2.341133590440e-10       3.542113897797e-14      -4.636938321440e-13       0.000000000000e+00       2.937885678027e-11       3.465324997475e-12      -1.077752745411e-14 
   66       2.372139386098e-10       3.703144650715e-14      -5.146236874734e-13       0.000000000000e+00       2.835631656252e-11       3.359755107119e-12      -1.077432971190e-14 
   67       2.403411665012e-10       3.867570952495e-14      -5.672059076150e-13       0.000000000000e+00       2.737929850361e-11       3.258818581931e-12      -1.073310677383e-14 
   68       2.434920257699e-10       4.035278993323e-14      -6.213986672537e-13       0.000000000000e+00       2.644192633431e-11       3.161897833303e-12      -1.066317745072e-14 
   69       2.466675846779e-10       4.206185229099e-14      -6.771895782686e-13       0.000000000000e+00       2.554351723672e-11       3.068912880905e-12      -1.056814372892e-14 
   70       2.498697485357e-10       4.380210545671e-14      -7.345742869302e-13       0.000000000000e+00       2.468427942252e-11       2.979873954301e-12      -1.045035789822e-14 
   71       2.531000666493e-10       4.557270878725e-14      -7.935487772188e-13       0.000000000000e+00       2.386373120134e-11       2.894717017027e-12      -1.031254922574e-14 
   72       2.563597061482e-10       4.737277177146e-14      -8.541094564352e-13       0.000000000000e+00       2.308066530180e-11       2.813299933091e-12      -1.015783782953e-14 
   73       2.596494258147e-10       4.920135366378e-14      -9.162532408105e-13       0.000000000000e+00       2.233311319271e-11       2.735398633462e-12      -9.989748552213e-15 
   74       2.629695499125e-10       5.105746311785e-14      -9.799776411160e-13       0.000000000000e+00       2.161830940414e-11       2.660703282575e-12      -9.812224834559e-15 
   75       2.663199420156e-10       5.294005782008e-14      -1.045280848273e-12       0.000000000000e+00       2.093265584858e-11       2.588814444823e-12      -9.629642589153e-15 
   76       2.697003648606e-10       5.484801357876e-14      -1.112154190290e-12       0.000000000000e+00       2.027261577165e-11       2.519344637577e-12      -9.446248014826e-15 
   77       2.731116935161e-10       5.678002589380e-14      -1.180557725812e-12       0.000000000000e+00       1.963766267346e-11       2.452252843897e-12      -9.264322017141e-15 
   78       2.765548769203e-10       5.873468968864e-14      -1.250440334796e-12       0.000000000000e+00       1.902780681438e-11       2.387564318529e-12      -9.085704711557e-15 
   79       2.800305535238e-10       6.071052728582e-14      -1.321746882675e-12       0.000000000000e+00       1.844269694410e-11       2.325268967527e-12      -8.912343815391e-15 
   80       2.835390330334e-10       6.270598741414e-14      -1.394418149534e-12       0.000000000000e+00       1.788160368554e-11       2.265319675783e-12      -8.746296708873e-15 
   81       2.870802781574e-10       6.471944421600e-14      -1.468390759290e-12       0.000000000000e+00       1.734340291882e-11       2.207630634562e-12      -8.589732496214e-15 
   82       2.906538863492e-10       6.674919625460e-14      -1.543597108868e-12       0.000000000000e+00       1.682655916516e-11       2.152075669030e-12      -8.444934066665e-15 
   83       2.942590715526e-10       6.879346552125e-14      -1.619965297379e-12       0.000000000000e+00       1.632910897081e-11       2.098486565794e-12      -8.314300155578e-15 
   84       2.978950228191e-10       7.085045853392e-14      -1.697425156265e-12       0.000000000000e+00       1.584913856538e-11       2.046695999804e-12      -8.199686664460e-15 
   85       3.015620884566e-10       7.291856344553e-14      -1.775927643458e-12       0.000000000000e+00       1.538634421624e-11       1.996678155144e-12      -8.100300643565e-15 
   86       3.052607556297e-10       7.499618394384e-14      -1.855428549458e-12       0.000000000000e+00       1.494070128580e-11       1.948428458193e-12      -8.014459331790e-15 
   87       3.089912791949e-10       7.708168011546e-14      -1.935882713482e-12       0.000000000000e+00       1.451198476967e-11       1.901920141654e-12      -7.940210945243e-15 
   88       3.127536697790e-10       7.917336849671e-14      -2.017244055180e-12       0.000000000000e+00       1.409976098781e-11       1.857103321656e-12      -7.875325633409e-15 
   89       3.165476818579e-10       8.126952212438e-14      -2.099465606344e-12       0.000000000000e+00       1.370337927553e-11       1.813904074854e-12      -7.817286435326e-15 
   90       3.203728018347e-10       8.336837058655e-14      -2.182499542629e-12       0.000000000000e+00       1.332196367457e-11       1.772223515534e-12      -7.763280235754e-15 
   91       3.242282361186e-10       8.546810007343e-14      -2.266297215265e-12       0.000000000000e+00       1.295440462420e-11       1.731936872712e-12      -7.710188721345e-15 
   92       3.281128992034e-10       8.756685342814e-14      -2.350809182775e-12       0.000000000000e+00       1.259935065221e-11       1.692892567239e-12      -7.654579336815e-15 
   93       3.320257588507e-10       8.966275382346e-14      -2.435983733112e-12       0.000000000000e+00       1.225552925860e-11       1.654949473910e-12      -7.593474191890e-15 
   94       3.359669569210e-10       9.175397975500e-14      -2.521762126947e-12       0.000000000000e+00       1.192278281954e-11       1.618097123071e-12      -7.526808710794e-15 
   95       3.399368358587e-10       9.383870147344e-14      -2.608082694282e-12       0.000000000000e+00       1.160117384598e-11       1.582351955113e-12      -7.455327763301e-15 
   96       3.439355896816e-10       9.591505873368e-14      -2.694882291125e-12       0.000000000000e+00       1.129066593380e-11       1.547720352888e-12      -7.379842275231e-15 
   97       3.479632569615e-10       9.798116116994e-14      -2.782096310483e-12       0.000000000000e+00       1.099111997364e-11       1.514198242967e-12      -7.301230863432e-15 
   98       3.520197138049e-10       1.000350886709e-13      -2.869658693357e-12       0.000000000000e+00       1.070229036076e-11       1.481770696899e-12      -7.220441470750e-15 
   99       3.561046668329e-10       1.020748917549e-13      -2.957501939734e-12       0.000000000000e+00       1.042382120486e-11       1.450411532479e-12      -7.138493001000e-15 
  100       3.602176461621e-10       1.040985919448e-13      -3.045557119582e-12       0.000000000000e+00       1.015524253994e-11       1.420082915001e-12      -7.056476953946e-15 
  101       3.643579983851e-10       1.061041821436e-13      -3.133753883840e-12       0.000000000000e+00       9.895966534075e-12       1.390734958530e-12      -6.975559060266e-15 
  102       3.685248795505e-10       1.080896270088e-13      -3.222020475417e-12       0.000000000000e+00       9.645283699339e-12       1.362305327151e-12      -6.896980916535e-15 
  103       3.727172481437e-10       1.100528633283e-13      -3.310283740178e-12       0.000000000000e+00       9.402359101571e-12       1.334718836242e-12      -6.822061620189e-15 
  104       3.769340895434e-10       1.119918544201e-13      -3.398470338570e-12       0.000000000000e+00       9.166421748719e-12       1.307904683504e-12      -6.751900721989e-15 
  105       3.811751390418e-10       1.139047608933e-13      -3.486510543203e-12       0.000000000000e+00       8.937370055861e-12       1.281851651824e-12      -6.686437862291e-15 
  106       3.854402438619e-10       1.157897937615e-13      -3.574334977147e-12       0.000000000000e+00       8.715241484482e-12       1.256559654868e-12      -6.625268562038e-15 
  107       3.897291359818e-10       1.176451634345e-13      -3.661873483012e-12       0.000000000000e+00       8.500025020479e-12       1.232022570684e-12      -6.567929934349e-15 
