# dimensionless [l(l+1)/2pi] C_l's for scalar cross ADxCDI mode
# for l=2 to 6500, i.e. number of multipoles equal to 6499
#
# -> if you prefer output in CAMB/HealPix/LensPix units/order, set 'format' to 'camb' in input file
# -> if you don't want to see such a header, set 'headers' to 'no' in input file
# -> for CMB lensing (phi), these are C_l^phi-phi for the lensing potential.
#    Remember the conversion factors:
#    C_l^dd (deflection) = l(l+1) C_l^phi-phi
#    C_l^gg (shear/convergence) = 1/4 (l(l+1))^2 C_l^phi-phi
#
# 1:l     2:TT                     3:EE                     4:TE                     5:BB                     6:phiphi                 7:TPhi                   8:Ephi               
    2       2.251761775170e-13       9.486366540306e-18       6.799908891256e-16       0.000000000000e+00       9.918247064436e-12       4.498375081283e-13      -2.695903250923e-15 
    3       2.635605283786e-13       1.588841202274e-17       9.223845488420e-16       0.000000000000e+00       7.029563434261e-12       3.695002852268e-13      -2.589647734938e-15 
    4       2.907799540833e-13       1.723735113716e-17       1.005802263337e-15       0.000000000000e+00       5.296356779754e-12       3.082070304781e-13      -2.131890492746e-15 
    5       3.127017482168e-13       1.408493589012e-17       9.792807491635e-16       0.000000000000e+00       4.187653961934e-12       2.619238062406e-13      -1.555275645827e-15 
    6       3.317027102234e-13       9.227433841814e-18       8.887613989629e-16       0.000000000000e+00       3.426871533515e-12       2.260394587711e-13      -9.821938187026e-16 
    7       3.488276484851e-13       5.162664797947e-18       7.722463417858e-16       0.000000000000e+00       2.872946902152e-12       1.973710900813e-13      -4.900367814500e-16 
    8       3.643866826509e-13       2.849146547850e-18       6.563374966825e-16       0.000000000000e+00       2.452349900650e-12       1.740111477052e-13      -1.204586607812e-16 
    9       3.788457044817e-13       1.946259378784e-18       5.581647402145e-16       0.000000000000e+00       2.124535240724e-12       1.547965528637e-13       1.140594847917e-16 
   10       3.922644195443e-13       1.672201049260e-18       4.867317396023e-16       0.000000000000e+00       1.864202137033e-12       1.388550349717e-13       2.241334758597e-16 
   11       4.046663213531e-13       1.477366423723e-18       4.447487807706e-16       0.000000000000e+00       1.560409050545e-12       1.230865875187e-13       2.339172375265e-16 
   12       4.162811770585e-13       1.220106722654e-18       4.305133988194e-16       0.000000000000e+00       1.391706037009e-12       1.116356296954e-13       1.830674428536e-16 
   13       4.269363265096e-13       9.889018536131e-19       4.399198061809e-16       0.000000000000e+00       1.250201959308e-12       1.017121896871e-13       1.023568098386e-16 
   14       4.367991762572e-13       8.721728250905e-19       4.682106764520e-16       0.000000000000e+00       1.130083062350e-12       9.308580491976e-14       2.034839253258e-17 
   15       4.459665662508e-13       8.637536609544e-19       5.106510183671e-16       0.000000000000e+00       1.027068410719e-12       8.566792370952e-14      -4.355106585400e-17 
   16       4.544040882830e-13       9.028064463085e-19       5.632209870869e-16       0.000000000000e+00       9.379264913404e-13       7.914871388657e-14      -8.025706867834e-17 
   17       4.622385924089e-13       9.472450707704e-19       6.231076986357e-16       0.000000000000e+00       8.601749600191e-13       7.318684735929e-14      -8.967331621790e-17 
   18       4.694187165213e-13       1.003884997646e-18       6.885436471833e-16       0.000000000000e+00       7.916162636378e-13       6.783756303092e-14      -7.806932345769e-17 
   19       4.760255771761e-13       1.098413765055e-18       7.591272332265e-16       0.000000000000e+00       7.315118682027e-13       6.307203114433e-14      -5.384167426899e-17 
   20       4.820532602814e-13       1.258001469916e-18       8.347555098069e-16       0.000000000000e+00       6.778226575633e-13       5.869098725072e-14      -2.774438394676e-17 
   21       4.875549630155e-13       1.482962696142e-18       9.158376928104e-16       0.000000000000e+00       6.299059575191e-13       5.474064772538e-14      -6.420501272566e-18 
   22       4.925171616150e-13       1.763006315819e-18       1.002854356741e-15       0.000000000000e+00       5.868096501255e-13       5.127625998814e-14       5.050961674945e-18 
   23       4.970097601625e-13       2.096706277545e-18       1.095710673430e-15       0.000000000000e+00       5.480759781833e-13       4.822027153699e-14       6.259596860006e-18 
   24       5.010559323086e-13       2.485134906263e-18       1.193931423672e-15       0.000000000000e+00       5.129414048074e-13       4.540828149235e-14      -8.453777100459e-19 
   25       5.046517696058e-13       2.932191661699e-18       1.296648589858e-15       0.000000000000e+00       4.810866340964e-13       4.276608617883e-14      -1.287021268443e-17 
   26       5.077486275007e-13       3.441521429103e-18       1.402754141448e-15       0.000000000000e+00       4.520274545590e-13       4.024265696030e-14      -2.546232168451e-17 
   27       5.104226581811e-13       4.011828676044e-18       1.511390607145e-15       0.000000000000e+00       4.254847075906e-13       3.791106065771e-14      -3.546429179568e-17 
   28       5.127494482590e-13       4.640996002524e-18       1.621763768555e-15       0.000000000000e+00       4.010699113113e-13       3.585590652578e-14      -4.032507528968e-17 
   29       5.147621326191e-13       5.334715060197e-18       1.733394545494e-15       0.000000000000e+00       3.787015765259e-13       3.404407482906e-14      -4.022092356090e-17 
   30       5.164295953875e-13       6.101961927048e-18       1.845898288577e-15       0.000000000000e+00       3.581830588694e-13       3.237297539333e-14      -3.651815411922e-17 
   31       5.176849498452e-13       6.952133391952e-18       1.958977598914e-15       0.000000000000e+00       3.391489964084e-13       3.072922295150e-14      -3.096535905283e-17 
   32       5.185682603068e-13       7.891468688134e-18       2.072716089724e-15       0.000000000000e+00       3.215304786039e-13       2.912991137308e-14      -2.504240520337e-17 
   33       5.191275515059e-13       8.925303887931e-18       2.187412764549e-15       0.000000000000e+00       3.052295395281e-13       2.763239580158e-14      -2.042228263200e-17 
   34       5.193835117126e-13       1.005878318410e-17       2.303377263309e-15       0.000000000000e+00       2.900499353211e-13       2.628379568968e-14      -1.867401169120e-17 
   35       5.193515021254e-13       1.129617215071e-17       2.420438271316e-15       0.000000000000e+00       2.759338013792e-13       2.507280775277e-14      -1.955117193346e-17 
   36       5.190201038733e-13       1.264125421084e-17       2.538266628333e-15       0.000000000000e+00       2.627876323444e-13       2.395909608302e-14      -2.208920395073e-17 
   37       5.183637265858e-13       1.409780989161e-17       2.656491323840e-15       0.000000000000e+00       2.504633103052e-13       2.289818663044e-14      -2.520386273145e-17 
   38       5.174195793787e-13       1.567075827864e-17       2.774658296865e-15       0.000000000000e+00       2.389415644061e-13       2.188842972681e-14      -2.827118173977e-17 
   39       5.162314357109e-13       1.736536611053e-17       2.892254437703e-15       0.000000000000e+00       2.281970610353e-13       2.093833761025e-14      -3.071908600070e-17 
   40       5.148263384390e-13       1.918693472160e-17       3.008715466035e-15       0.000000000000e+00       2.181422227622e-13       2.005361220955e-14      -3.186341194132e-17 
   41       5.132159827809e-13       2.114082369220e-17       3.123507038989e-15       0.000000000000e+00       2.086604732246e-13       1.923592181387e-14      -3.114573864177e-17 
   42       5.114064700705e-13       2.323254505730e-17       3.236405671953e-15       0.000000000000e+00       1.997322584067e-13       1.847950467918e-14      -2.895609451358e-17 
   43       5.093881839328e-13       2.546768996476e-17       3.347305176935e-15       0.000000000000e+00       1.913407578014e-13       1.777293286805e-14      -2.606679798498e-17 
   44       5.071307426233e-13       2.785189812111e-17       3.456144270168e-15       0.000000000000e+00       1.834338564740e-13       1.709955831349e-14      -2.342097483010e-17 
   45       5.046003183633e-13       3.039068794770e-17       3.562862253823e-15       0.000000000000e+00       1.759445478844e-13       1.644256746143e-14      -2.189739227664e-17 
   46       5.018221701305e-13       3.308889563947e-17       3.667242439793e-15       0.000000000000e+00       1.688661450569e-13       1.580283173546e-14      -2.149734313184e-17 
   47       4.988336293278e-13       3.595106180869e-17       3.769027561824e-15       0.000000000000e+00       1.621946972821e-13       1.518575516242e-14      -2.193183775964e-17 
   48       4.956657935860e-13       3.898156980275e-17       3.867963909853e-15       0.000000000000e+00       1.559062071979e-13       1.459624666272e-14      -2.284182863721e-17 
   49       4.923427644252e-13       4.218463226715e-17       3.963801905679e-15       0.000000000000e+00       1.499551147678e-13       1.403865741373e-14      -2.379417704326e-17 
   50       4.888812546104e-13       4.556433308883e-17       4.056284777343e-15       0.000000000000e+00       1.442889512243e-13       1.351606648677e-14      -2.438541304714e-17 
   51       4.852910531946e-13       4.912479782182e-17       4.145109622475e-15       0.000000000000e+00       1.389005073277e-13       1.302805447928e-14      -2.459557595533e-17 
   52       4.815733689580e-13       5.287004629502e-17       4.229956771130e-15       0.000000000000e+00       1.337872050557e-13       1.257221728895e-14      -2.452344802787e-17 
   53       4.777197444792e-13       5.680393070118e-17       4.310500778598e-15       0.000000000000e+00       1.289354281075e-13       1.214467392917e-14      -2.428817032484e-17 
   54       4.737113111945e-13       6.093012476601e-17       4.386410441023e-15       0.000000000000e+00       1.243197668219e-13       1.173997322289e-14      -2.403028202058e-17 
   55       4.695289242169e-13       6.525230992044e-17       4.457364857382e-15       0.000000000000e+00       1.199113531872e-13       1.135251452814e-14      -2.388177883719e-17 
   56       4.651882216981e-13       6.977481278900e-17       4.523106252222e-15       0.000000000000e+00       1.157070204256e-13       1.098143697252e-14      -2.386519709639e-17 
   57       4.607119701420e-13       7.450210709612e-17       4.583400302576e-15       0.000000000000e+00       1.117060646906e-13       1.062678137647e-14      -2.397128042026e-17 
   58       4.561196336517e-13       7.943862745136e-17       4.638021868151e-15       0.000000000000e+00       1.079013974421e-13       1.028804906564e-14      -2.418760007649e-17 
   59       4.514270528751e-13       8.458876619401e-17       4.686755632124e-15       0.000000000000e+00       1.042791445245e-13       9.964167552986e-15      -2.449838724534e-17 
   60       4.466461239509e-13       8.995687023764e-17       4.729396741942e-15       0.000000000000e+00       1.008182452439e-13       9.653456220870e-15      -2.488436528661e-17 
   61       4.417862472247e-13       9.554694034537e-17       4.765747125069e-15       0.000000000000e+00       9.749663313709e-14       9.354187941513e-15      -2.532442636824e-17 
   62       4.368597797090e-13       1.013616572153e-16       4.795602020186e-15       0.000000000000e+00       9.431230646864e-14       9.066498885922e-15      -2.580148058492e-17 
   63       4.318772423400e-13       1.074031301954e-16       4.818761546126e-15       0.000000000000e+00       9.126629731283e-14       8.790848445238e-15      -2.629762806669e-17 
   64       4.268453985492e-13       1.136731632149e-16       4.835035253744e-15       0.000000000000e+00       8.835631891698e-14       8.527446015620e-15      -2.679232342026e-17 
   65       4.217669893629e-13       1.201732421874e-16       4.844242629484e-15       0.000000000000e+00       8.557657361111e-14       8.276235589012e-15      -2.726226651624e-17 
   66       4.166404685015e-13       1.269045224138e-16       4.846213598954e-15       0.000000000000e+00       8.291756071762e-14       8.036880343905e-15      -2.768129327627e-17 
   67       4.114597374787e-13       1.338678159852e-16       4.840789030486e-15       0.000000000000e+00       8.036588446103e-14       7.808747236101e-15      -2.802026646025e-17 
   68       4.062189497123e-13       1.410637536633e-16       4.827808062776e-15       0.000000000000e+00       7.790801735250e-14       7.591076371932e-15      -2.825381880417e-17 
   69       4.009286453657e-13       1.484933367706e-16       4.807065980441e-15       0.000000000000e+00       7.554290522425e-14       7.383563424602e-15      -2.838241317708e-17 
   70       3.956024249923e-13       1.561574750112e-16       4.778348668352e-15       0.000000000000e+00       7.327158296282e-14       7.185868091142e-15      -2.841457673582e-17 
   71       3.902520369612e-13       1.640568138994e-16       4.741445195952e-15       0.000000000000e+00       7.109335572387e-14       6.997429259878e-15      -2.836050893033e-17 
   72       3.848872421984e-13       1.721917266246e-16       4.696147983842e-15       0.000000000000e+00       6.900570800482e-14       6.817454327085e-15      -2.823214754276e-17 
   73       3.795156789287e-13       1.805623059167e-16       4.642252970369e-15       0.000000000000e+00       6.700421271763e-14       6.644908513650e-15      -2.804323472662e-17 
   74       3.741427274171e-13       1.891683559115e-16       4.579559778214e-15       0.000000000000e+00       6.508244026156e-14       6.478504181728e-15      -2.780938304584e-17 
   75       3.687713747105e-13       1.980093840157e-16       4.507871880983e-15       0.000000000000e+00       6.323186759587e-14       6.316690151403e-15      -2.754814151397e-17 
   76       3.634043627046e-13       2.070845868663e-16       4.427009164291e-15       0.000000000000e+00       6.144409291255e-14       6.158051816671e-15      -2.727619629001e-17 
   77       3.580513835629e-13       2.163928232346e-16       4.336847885226e-15       0.000000000000e+00       5.971814689846e-14       6.002619344162e-15      -2.700023745779e-17 
   78       3.527229567759e-13       2.259326213789e-16       4.237288336200e-15       0.000000000000e+00       5.805435571491e-14       5.850779729626e-15      -2.672453900167e-17 
   79       3.474281752329e-13       2.357021763901e-16       4.128243510831e-15       0.000000000000e+00       5.645211073205e-14       5.702884938865e-15      -2.645368356297e-17 
   80       3.421746167845e-13       2.456993419357e-16       4.009639524682e-15       0.000000000000e+00       5.490982487981e-14       5.559249648161e-15      -2.619256972286e-17 
   81       3.369682558060e-13       2.559216220040e-16       3.881416036019e-15       0.000000000000e+00       5.342488899883e-14       5.420148984712e-15      -2.594641928538e-17 
   82       3.318133747602e-13       2.663661626484e-16       3.743526666549e-15       0.000000000000e+00       5.199362819142e-14       5.285816267061e-15      -2.572078456028e-17 
   83       3.267124757607e-13       2.770297437315e-16       3.595939422172e-15       0.000000000000e+00       5.061125817246e-14       5.156440745526e-15      -2.552155564603e-17 
   84       3.216679978692e-13       2.879088492904e-16       3.438623914944e-15       0.000000000000e+00       4.927310577746e-14       5.032146929169e-15      -2.535349322035e-17 
   85       3.166879898126e-13       2.989999101200e-16       3.271509673409e-15       0.000000000000e+00       4.797859857663e-14       4.912933578491e-15      -2.521553149045e-17 
   86       3.117812199099e-13       3.102990864552e-16       3.094521660288e-15       0.000000000000e+00       4.672785970108e-14       4.798720409188e-15      -2.510470630389e-17 
   87       3.069553967191e-13       3.218021860931e-16       2.907593052759e-15       0.000000000000e+00       4.552048041858e-14       4.689363075219e-15      -2.501754316767e-17 
   88       3.022171109486e-13       3.335046574585e-16       2.710665441380e-15       0.000000000000e+00       4.435549773086e-14       4.584650599766e-15      -2.495003974980e-17 
   89       2.975717773690e-13       3.454015826695e-16       2.503689029003e-15       0.000000000000e+00       4.323137197088e-14       4.484302806197e-15      -2.489764838080e-17 
   90       2.930235767241e-13       3.574876706030e-16       2.286622829693e-15       0.000000000000e+00       4.214596440009e-14       4.387967749027e-15      -2.485525855533e-17 
   91       2.885753976427e-13       3.697572499603e-16       2.059434867653e-15       0.000000000000e+00       4.109651480571e-14       4.295219144879e-15      -2.481717943365e-17 
   92       2.842287785504e-13       3.822042623322e-16       1.822102376134e-15       0.000000000000e+00       4.007961909799e-14       4.205553803445e-15      -2.477712234325e-17 
   93       2.799854773207e-13       3.948223547709e-16       1.574611487804e-15       0.000000000000e+00       3.909207122038e-14       4.118503903007e-15      -2.472960113569e-17 
   94       2.758525764490e-13       4.076051884903e-16       1.316955820487e-15       0.000000000000e+00       3.813358238442e-14       4.033998713278e-15      -2.467441218625e-17 
   95       2.718380418702e-13       4.205461639888e-16       1.049138045508e-15       0.000000000000e+00       3.720443129053e-14       3.952052778943e-15      -2.461279896890e-17 
   96       2.679491283670e-13       4.336383201868e-16       7.711705666656e-16       0.000000000000e+00       3.630462585820e-14       3.872654943250e-15      -2.454609617501e-17 
   97       2.641923438250e-13       4.468743288582e-16       4.830757121682e-16       0.000000000000e+00       3.543389268760e-14       3.795767355418e-15      -2.447573167764e-17 
   98       2.605734134877e-13       4.602464890613e-16       1.848859265732e-16       0.000000000000e+00       3.459166652105e-14       3.721324478053e-15      -2.440322849572e-17 
   99       2.570972442125e-13       4.737467215710e-16      -1.233560372751e-16       0.000000000000e+00       3.377707970464e-14       3.649232094561e-15      -2.433020675828e-17 
  100       2.537678887247e-13       4.873665633097e-16      -4.415969263080e-16       0.000000000000e+00       3.298895164977e-14       3.579366316563e-15      -2.425838566868e-17 
  101       2.505885098741e-13       5.010971617788e-16      -7.697727952942e-16       0.000000000000e+00       3.222577829466e-14       3.511572591308e-15      -2.418958546879e-17 
  102       2.475613448890e-13       5.149292694905e-16      -1.107808814901e-15       0.000000000000e+00       3.148572156596e-14       3.445664709085e-15      -2.412572940327e-17 
  103       2.446876696324e-13       5.288532383987e-16      -1.455619079759e-15       0.000000000000e+00       3.076659884027e-14       3.381423810642e-15      -2.406884568374e-17 
  104       2.419689736440e-13       5.428592120307e-16      -1.813111175306e-15       0.000000000000e+00       3.006639592630e-14       3.318651242535e-15      -2.402056512706e-17 
  105       2.394107430340e-13       5.569377434344e-16      -2.180200994335e-15       0.000000000000e+00       2.938490762993e-14       3.257337392671e-15      -2.398053255311e-17 
  106       2.370191243438e-13       5.710792507137e-16      -2.556799573437e-15       0.000000000000e+00       2.872230019060e-14       3.197513917698e-15      -2.394778345285e-17 
