# dimensionless total [l(l+1)/2pi] C_l's
# for l=2 to 6500, i.e. number of multipoles equal to 6499
#
# -> if you prefer output in CAMB/HealPix/LensPix units/order, set 'format' to 'camb' in input file
# -> if you don't want to see such a header, set 'headers' to 'no' in input file
# -> for CMB lensing (phi), these are C_l^phi-phi for the lensing potential.
#    Remember the conversion factors:
#    C_l^dd (deflection) = l(l+1) C_l^phi-phi
#    C_l^gg (shear/convergence) = 1/4 (l(l+1))^2 C_l^phi-phi
#
# 1:l     2:TT                     3:EE                     4:TE                     5:BB                     6:phiphi                 7:TPhi                   8:Ephi               
    2       1.129232125866e-10       4.249472758303e-15       2.668807588688e-13       0.000000000000e+00       8.209641789546e-09       4.983534764125e-10      -1.562101681401e-12 
    3       1.096461463577e-10       6.803801822543e-15       3.467436506902e-13       0.000000000000e+00       5.235086821051e-09       3.639352245455e-10      -1.375195757564e-12 
    4       1.060978948823e-10       7.296684735570e-15       3.625261967210e-13       0.000000000000e+00       3.745273198107e-09       2.824130362641e-10      -1.057796077023e-12 
    5       1.036190602662e-10       6.049981894578e-15       3.393465241402e-13       0.000000000000e+00       2.859385853103e-09       2.277769126993e-10      -7.277637968617e-13 
    6       1.022796683901e-10       4.113919664123e-15       2.965246248556e-13       0.000000000000e+00       2.275774499445e-09       1.887148368682e-10      -4.327848951022e-13 
    7       1.019257676763e-10       2.424951671571e-15       2.480285978059e-13       0.000000000000e+00       1.865454862363e-09       1.594970273253e-10      -1.966410780995e-13 
    8       1.022962598382e-10       1.391188481022e-15       2.026396713874e-13       0.000000000000e+00       1.562659041241e-09       1.368924082107e-10      -2.839981380605e-14 
    9       1.032836540108e-10       9.447749407059e-16       1.654417112800e-13       0.000000000000e+00       1.331049330587e-09       1.190004076317e-10       7.343696174902e-14 
   10       1.047587595184e-10       8.106275049229e-16       1.387063200397e-13       0.000000000000e+00       1.149302784450e-09       1.045944415098e-10       1.180216111808e-13 
   11       1.065706301074e-10       7.515747340595e-16       1.227183801772e-13       0.000000000000e+00       9.711604830907e-10       9.241819794212e-11       1.187037310520e-13 
   12       1.086354525703e-10       6.698514984515e-16       1.163182760580e-13       0.000000000000e+00       8.559798253734e-10       8.259868730562e-11       9.245125963865e-14 
   13       1.109400430876e-10       5.776971239129e-16       1.173287115618e-13       0.000000000000e+00       7.605652397052e-10       7.415945103576e-11       5.271692638530e-14 
   14       1.134288571623e-10       5.182213808928e-16       1.232560655279e-13       0.000000000000e+00       6.805033545685e-10       6.711436229623e-11       1.194220223927e-14 
   15       1.160393484040e-10       5.095785258552e-16       1.318485922383e-13       0.000000000000e+00       6.125850856747e-10       6.114186904742e-11      -2.153929843946e-14 
   16       1.187808937399e-10       5.372897066452e-16       1.413630157925e-13       0.000000000000e+00       5.544108795120e-10       5.586082193231e-11      -4.335861861891e-14 
   17       1.216314101312e-10       5.766403544579e-16       1.506961291213e-13       0.000000000000e+00       5.041544544744e-10       5.114888436492e-11      -5.244120059350e-14 
   18       1.245407750473e-10       6.147857915023e-16       1.592688787157e-13       0.000000000000e+00       4.602455276793e-10       4.699401838631e-11      -5.052279102485e-14 
   19       1.275333275115e-10       6.595668777207e-16       1.670887851804e-13       0.000000000000e+00       4.220783231550e-10       4.337734155340e-11      -4.072874369506e-14 
   20       1.306083015465e-10       7.257381230409e-16       1.744098094193e-13       0.000000000000e+00       3.882642812647e-10       4.017337528929e-11      -2.753290739209e-14 
   21       1.337463296477e-10       8.221593275283e-16       1.816632171145e-13       0.000000000000e+00       3.583266805341e-10       3.730565493478e-11      -1.430883297682e-14 
   22       1.368998048134e-10       9.542185138789e-16       1.893613658798e-13       0.000000000000e+00       3.316001072640e-10       3.467740293560e-11      -4.214551394733e-15 
   23       1.400916391588e-10       1.118427926876e-15       1.977431947219e-13       0.000000000000e+00       3.077530188346e-10       3.230932883049e-11       1.481320775594e-15 
   24       1.433463195162e-10       1.307975665816e-15       2.068890214098e-13       0.000000000000e+00       2.862698165584e-10       3.022265559112e-11       2.416430446769e-15 
   25       1.466555264368e-10       1.522441679473e-15       2.165717573621e-13       0.000000000000e+00       2.669223430039e-10       2.836103809574e-11      -6.151917587193e-16 
   26       1.499888888555e-10       1.762971421121e-15       2.263923088897e-13       0.000000000000e+00       2.493844618747e-10       2.663077140827e-11      -6.106903039936e-15 
   27       1.533475468408e-10       2.029301136653e-15       2.359381627040e-13       0.000000000000e+00       2.334644351382e-10       2.502680837247e-11      -1.234785764906e-14 
   28       1.567340827015e-10       2.320578956547e-15       2.447594167987e-13       0.000000000000e+00       2.189065373707e-10       2.355943910479e-11      -1.752273411983e-14 
   29       1.601572068196e-10       2.636746988095e-15       2.525338474978e-13       0.000000000000e+00       2.056473033302e-10       2.222529197691e-11      -2.092257865372e-14 
   30       1.636169104415e-10       2.977811319297e-15       2.589428994569e-13       0.000000000000e+00       1.935549645774e-10       2.100265960035e-11      -2.215285312763e-14 
   31       1.671040779446e-10       3.344206245211e-15       2.636943681056e-13       0.000000000000e+00       1.823959981977e-10       1.986027898857e-11      -2.098209602227e-14 
   32       1.706230871469e-10       3.739161743749e-15       2.667870152675e-13       0.000000000000e+00       1.721202906806e-10       1.879750916040e-11      -1.796479922152e-14 
   33       1.741752694947e-10       4.167297455774e-15       2.683512680918e-13       0.000000000000e+00       1.626622268694e-10       1.781728175661e-11      -1.408212347095e-14 
   34       1.777558276480e-10       4.633173100501e-15       2.685547670999e-13       0.000000000000e+00       1.538978438727e-10       1.691602856630e-11      -1.041467811945e-14 
   35       1.813677990522e-10       5.138169255964e-15       2.674926532034e-13       0.000000000000e+00       1.457871787803e-10       1.608772400189e-11      -7.487961669575e-15 
   36       1.850113724274e-10       5.682503720720e-15       2.652641097620e-13       0.000000000000e+00       1.382698919218e-10       1.531997403523e-11      -5.711354639958e-15 
   37       1.886821181335e-10       6.266265878606e-15       2.619542978181e-13       0.000000000000e+00       1.312536881431e-10       1.459727059569e-11      -5.411611266064e-15 
   38       1.923804154227e-10       6.890247233710e-15       2.574654044246e-13       0.000000000000e+00       1.247234999161e-10       1.391829182563e-11      -6.345222966505e-15 
   39       1.961039792395e-10       7.555358874787e-15       2.516289971304e-13       0.000000000000e+00       1.186613809527e-10       1.328357047311e-11      -8.017037298126e-15 
   40       1.998445662914e-10       8.262398374226e-15       2.442488149954e-13       0.000000000000e+00       1.130132087280e-10       1.269048987127e-11      -9.799500080668e-15 
   41       2.035927432498e-10       9.012127799321e-15       2.351245503689e-13       0.000000000000e+00       1.077081992621e-10       1.213451840096e-11      -1.107134881847e-14 
   42       2.073555036104e-10       9.805558421775e-15       2.241370841678e-13       0.000000000000e+00       1.027327301972e-10       1.161409598803e-11      -1.170915898623e-14 
   43       2.111433736722e-10       1.064374459421e-14       2.111877914881e-13       0.000000000000e+00       9.807520146512e-11       1.112684834934e-11      -1.174099335332e-14 
   44       2.149653101214e-10       1.152770297139e-14       1.961751134795e-13       0.000000000000e+00       9.370382926415e-11       1.066801588366e-11      -1.121402622271e-14 
   45       2.188276483004e-10       1.245836213123e-14       1.790185254541e-13       0.000000000000e+00       8.957841689343e-11       1.023209853464e-11      -1.020982871461e-14 
   46       2.227311211105e-10       1.343639926888e-14       1.597392852391e-13       0.000000000000e+00       8.569367480820e-11       9.818815605326e-12      -8.892459219648e-15 
   47       2.266725525511e-10       1.446235050006e-14       1.384036093799e-13       0.000000000000e+00       8.204610045722e-11       9.428610930080e-12      -7.477070612969e-15 
   48       2.306453262140e-10       1.553664946170e-14       1.151019017693e-13       0.000000000000e+00       7.862089019363e-11       9.060897810672e-12      -6.219347001709e-15 
   49       2.346391051402e-10       1.665962209447e-14       8.995001431662e-14       0.000000000000e+00       7.539109300831e-11       8.713978252627e-12      -5.417669631893e-15 
   50       2.386438439046e-10       1.783158204497e-14       6.304818036938e-14       0.000000000000e+00       7.232594477891e-11       8.385651430548e-12      -5.325503920251e-15 
   51       2.426637586702e-10       1.905315950566e-14       3.434174892115e-14       0.000000000000e+00       6.942050131496e-11       8.075421164606e-12      -5.855499495916e-15 
   52       2.467066649023e-10       2.032505261603e-14       3.724827422155e-15       0.000000000000e+00       6.667258604418e-11       7.782748033691e-12      -6.798815362724e-15 
   53       2.507799402623e-10       2.164793417326e-14      -2.892140876126e-14       0.000000000000e+00       6.407390809470e-11       7.506365333724e-12      -7.905868727300e-15 
   54       2.548904464516e-10       2.302245114973e-14      -6.372944754818e-14       0.000000000000e+00       6.160964805271e-11       7.244230748328e-12      -8.884276017700e-15 
   55       2.590436837485e-10       2.444911897469e-14      -1.008212180018e-13       0.000000000000e+00       5.926311046586e-11       6.994116194393e-12      -9.470815471428e-15 
   56       2.632411877141e-10       2.592797473005e-14      -1.402267023485e-13       0.000000000000e+00       5.703198380054e-11       6.755659668342e-12      -9.672966409680e-15 
   57       2.674823488753e-10       2.745883695590e-14      -1.819463861937e-13       0.000000000000e+00       5.491539422914e-11       6.528738469906e-12      -9.583767036642e-15 
   58       2.717650176711e-10       2.904139885533e-14      -2.259742046804e-13       0.000000000000e+00       5.290898066796e-11       6.312852731365e-12      -9.313857034990e-15 
   59       2.760853964009e-10       3.067522371186e-14      -2.722973014824e-13       0.000000000000e+00       5.100467794064e-11       6.107101952172e-12      -8.992302541773e-15 
   60       2.804379311736e-10       3.235974030685e-14      -3.208957877976e-13       0.000000000000e+00       4.919049994143e-11       5.910161533579e-12      -8.767421124299e-15 
   61       2.848173084484e-10       3.409437910364e-14      -3.717512177947e-13       0.000000000000e+00       4.745394221812e-11       5.720676784821e-12      -8.771536490325e-15 
   62       2.892252127870e-10       3.587902688740e-14      -4.248747832501e-13       0.000000000000e+00       4.579357274961e-11       5.538601373169e-12      -9.004131613552e-15 
   63       2.936649011155e-10       3.771366650662e-14      -4.802850486305e-13       0.000000000000e+00       4.420966990245e-11       5.364119030882e-12      -9.423812646318e-15 
   64       2.981391915250e-10       3.959824499762e-14      -5.379998279420e-13       0.000000000000e+00       4.270073261312e-11       5.197242577204e-12      -9.981751639709e-15 
   65       3.026504219968e-10       4.153267346838e-14      -5.980362202899e-13       0.000000000000e+00       4.126337839279e-11       5.037803699047e-12      -1.062136703719e-14 
   66       3.072004091287e-10       4.351682698239e-14      -6.604106454387e-13       0.000000000000e+00       3.989224133216e-11       4.885442731672e-12      -1.127800416823e-14 
   67       3.117904068605e-10       4.555054444255e-14      -7.251388793717e-13       0.000000000000e+00       3.857987010627e-11       4.739598439370e-12      -1.187861574195e-14 
   68       3.164213723624e-10       4.763345731467e-14      -7.922281128997e-13       0.000000000000e+00       3.731875846289e-11       4.599676097466e-12      -1.235759348249e-14 
   69       3.210949185220e-10       4.976443575753e-14      -8.616511794375e-13       0.000000000000e+00       3.610814243906e-11       4.465614130226e-12      -1.270870231657e-14 
   70       3.258124811965e-10       5.194202953988e-14      -9.333671449838e-13       0.000000000000e+00       3.494840353919e-11       4.337414457819e-12      -1.294314379470e-14 
   71       3.305749963065e-10       5.416462485777e-14      -1.007328657587e-12       0.000000000000e+00       3.383901150868e-11       4.214968796116e-12      -1.307442792923e-14 
   72       3.353828664186e-10       5.643043984089e-14      -1.083481778891e-12       0.000000000000e+00       3.277847687801e-11       4.098052997509e-12      -1.311846676071e-14 
   73       3.402359273260e-10       5.873752005889e-14      -1.161765815679e-12       0.000000000000e+00       3.176430350671e-11       3.986321391723e-12      -1.309366792413e-14 
   74       3.451334146309e-10       6.108373402778e-14      -1.242113151425e-12       0.000000000000e+00       3.079294112742e-11       3.879301126639e-12      -1.302102821531e-14 
   75       3.500739303256e-10       6.346676871625e-14      -1.324449077831e-12       0.000000000000e+00       2.985973788992e-11       3.776386509110e-12      -1.292422715714e-14 
   76       3.550561049165e-10       6.588438893334e-14      -1.408703765553e-12       0.000000000000e+00       2.896011621267e-11       3.676990285800e-12      -1.282443156456e-14 
   77       3.600807970629e-10       6.833528003246e-14      -1.494851068880e-12       0.000000000000e+00       2.809345278782e-11       3.581041844085e-12      -1.272340863284e-14 
   78       3.651492362019e-10       7.081835142842e-14      -1.582876524103e-12       0.000000000000e+00       2.725982318313e-11       3.488570000989e-12      -1.261748912360e-14 
   79       3.702623437449e-10       7.333248725156e-14      -1.672765917266e-12       0.000000000000e+00       2.645881929378e-11       3.399551721244e-12      -1.250256853155e-14 
   80       3.754207139218e-10       7.587654726515e-14      -1.764505364639e-12       0.000000000000e+00       2.568952697126e-11       3.313909676292e-12      -1.237409219551e-14 
   81       3.806245946249e-10       7.844936778288e-14      -1.858081393186e-12       0.000000000000e+00       2.495050365238e-11       3.231509803285e-12      -1.222704040947e-14 
   82       3.858738682538e-10       8.104976258634e-14      -1.953481021032e-12       0.000000000000e+00       2.423975598814e-11       3.152158864084e-12      -1.205591353366e-14 
   83       3.911680325589e-10       8.367652384240e-14      -2.050691837937e-12       0.000000000000e+00       2.355471747273e-11       3.075602004260e-12      -1.185471710557e-14 
   84       3.965065608510e-10       8.632827691382e-14      -2.149692462074e-12       0.000000000000e+00       2.289288435414e-11       3.001587438163e-12      -1.161909629356e-14 
   85       4.018900931993e-10       8.900301512598e-14      -2.250421916363e-12       0.000000000000e+00       2.225389349529e-11       2.930078172069e-12      -1.135317843416e-14 
   86       4.073194085057e-10       9.169848919784e-14      -2.352805299315e-12       0.000000000000e+00       2.163774956362e-11       2.861071067985e-12      -1.106384281847e-14 
   87       4.127950501063e-10       9.441234497601e-14      -2.456762877263e-12       0.000000000000e+00       2.104418623547e-11       2.794531544822e-12      -1.075869312761e-14 
   88       4.183173129914e-10       9.714212189662e-14      -2.562210003085e-12       0.000000000000e+00       2.047265488855e-11       2.730392265557e-12      -1.044607866715e-14 
   89       4.238862310261e-10       9.988525144724e-14      -2.669057034937e-12       0.000000000000e+00       1.992231329449e-11       2.668551824404e-12      -1.013511560154e-14 
   90       4.295015641696e-10       1.026390556287e-13      -2.777209254974e-12       0.000000000000e+00       1.939201431127e-11       2.608873433986e-12      -9.835708188636e-15 
   91       4.351627856962e-10       1.054007454170e-13      -2.886566788079e-12       0.000000000000e+00       1.888029457578e-11       2.551183612499e-12      -9.558570014086e-15 
   92       4.408690694148e-10       1.081674192253e-13      -2.997024520591e-12       0.000000000000e+00       1.838536319629e-11       2.495270870884e-12      -9.315245225829e-15 
   93       4.466195990053e-10       1.109362059419e-13      -3.108479507120e-12       0.000000000000e+00       1.790553372326e-11       2.440936402842e-12      -9.115435549410e-15 
   94       4.524145770050e-10       1.137047219959e-13      -3.220854641812e-12       0.000000000000e+00       1.744061893970e-11       2.388157727280e-12      -8.958475343488e-15 
   95       4.582543446511e-10       1.164706805100e-13      -3.334078413548e-12       0.000000000000e+00       1.699072591705e-11       2.336947344926e-12      -8.840607686528e-15 
   96       4.641390650398e-10       1.192317532905e-13      -3.448077756292e-12       0.000000000000e+00       1.655582627569e-11       2.287302337477e-12      -8.757548816048e-15 
   97       4.700687147683e-10       1.219855712728e-13      -3.562778070607e-12       0.000000000000e+00       1.613575096219e-11       2.239203768598e-12      -8.704472379966e-15 
   98       4.760430755762e-10       1.247297249687e-13      -3.678103245169e-12       0.000000000000e+00       1.573018502668e-11       2.192616084932e-12      -8.675993687959e-15 
   99       4.820617259874e-10       1.274617649122e-13      -3.793975678285e-12       0.000000000000e+00       1.533866240011e-11       2.147486517097e-12      -8.666153962810e-15 
  100       4.881240329520e-10       1.301792021064e-13      -3.910316299403e-12       0.000000000000e+00       1.496056067159e-11       2.103744480692e-12      -8.668404591767e-15 
  101       4.942291434878e-10       1.328795084696e-13      -4.027044590629e-12       0.000000000000e+00       1.459509586567e-11       2.061300977302e-12      -8.675591377891e-15 
  102       5.003759763222e-10       1.355601172821e-13      -4.144078608239e-12       0.000000000000e+00       1.424131721969e-11       2.020047995496e-12      -8.679938791410e-15 
  103       5.065632135340e-10       1.382184236323e-13      -4.261335004198e-12       0.000000000000e+00       1.389810196104e-11       1.979857911839e-12      -8.673034221074e-15 
  104       5.127895767060e-10       1.408518271384e-13      -4.378728176858e-12       0.000000000000e+00       1.356441353909e-11       1.940614405938e-12      -8.647636167068e-15 
  105       5.190547158705e-10       1.434578657228e-13      -4.496167546064e-12       0.000000000000e+00       1.324012729777e-11       1.902311251928e-12      -8.603410923434e-15 
  106       5.253584256244e-10       1.460341008248e-13      -4.613559948352e-12       0.000000000000e+00       1.292530712197e-11       1.864965817703e-12      -8.541945085431e-15 
  107       5.317003661726e-10       1.485780776398e-13      -4.730810486693e-12       0.000000000000e+00       1.261994964347e-11       1.828588492940e-12      -8.464995052067e-15 
